4.3400000e+0004.3400000e+0004.3400000e+0004.3400000e+0004.3400000e+0004.3400000e+0004.3400000e+0004.3200000e+0004.3100000e+0004.2800000e+0004.2900000e+0004.3000000e+0004.3050000e+0004.3100000e+0004.3200000e+0004.3050000e+0004.2850000e+0004.2800000e+0004.3000000e+0004.3100000e+0004.2950000e+0004.2700000e+0004.2600000e+0004.2750000e+0004.2800000e+0004.2750000e+0004.2700000e+0004.2550000e+0004.2450000e+0004.2650000e+0004.2700000e+0004.2650000e+0004.2650000e+0004.2700000e+0004.2550000e+0004.2550000e+0004.2650000e+0004.2700000e+0004.2750000e+0004.2750000e+0004.2600000e+0004.2700000e+0004.2800000e+0004.2900000e+0004.2800000e+0004.2650000e+0004.2600000e+0004.2650000e+0004.2650000e+0004.2650000e+0004.2650000e+0004.2500000e+0004.2500000e+0004.2650000e+0004.2750000e+0004.2900000e+0004.3050000e+0004.2950000e+0004.2850000e+0004.2650000e+0004.2150000e+0004.1700000e+0004.0750000e+0003.9800000e+0003.8600000e+0003.6850000e+0003.4500000e+0003.2000000e+0003.0250000e+0002.9500000e+0002.9500000e+0002.9950000e+0003.0400000e+0003.0650000e+0003.0900000e+0003.1250000e+0003.1650000e+0003.1900000e+0003.2300000e+0003.2600000e+0003.2850000e+0003.3100000e+0003.3550000e+0003.4100000e+0003.4550000e+0003.4950000e+0003.5200000e+0003.5350000e+0003.5900000e+0003.6750000e+0003.7600000e+0003.8500000e+0003.9250000e+0003.9800000e+0004.0250000e+0004.0950000e+0004.1650000e+0004.2350000e+0004.2800000e+0004.3000000e+0004.3500000e+0004.3950000e+0004.4500000e+0004.4650000e+0004.4800000e+0004.4750000e+0004.4800000e+0004.5050000e+0004.5250000e+0004.5350000e+0004.5400000e+0004.5250000e+0004.5400000e+0004.5400000e+0004.5550000e+0004.5650000e+0004.5650000e+0004.5750000e+0004.5750000e+0004.5800000e+0004.6050000e+0004.6100000e+0004.6050000e+0004.5900000e+0004.5950000e+0004.6100000e+0004.6350000e+0004.6350000e+0004.6450000e+0004.6350000e+0004.6350000e+0004.6450000e+0004.6550000e+0004.6450000e+0004.6450000e+0004.6350000e+0004.6450000e+0004.6550000e+0004.6650000e+0004.6700000e+0004.6700000e+0004.6500000e+0004.6500000e+0004.6650000e+0004.6850000e+0004.6950000e+0004.6900000e+0004.6850000e+0004.6650000e+0004.6850000e+0004.6900000e+0004.6950000e+0004.6900000e+0004.6800000e+0004.6850000e+0004.6900000e+0004.7050000e+0004.7050000e+0004.7050000e+0004.6850000e+0004.6900000e+0004.7000000e+0004.7100000e+0004.7150000e+0004.7150000e+0004.7000000e+0004.6950000e+0004.7050000e+0004.7200000e+0004.7250000e+0004.7250000e+0004.7050000e+0004.7050000e+0004.6950000e+0004.7000000e+0004.6950000e+0004.6850000e+0004.6800000e+0004.6700000e+0004.6650000e+0004.6800000e+0004.6750000e+0004.6850000e+0004.6650000e+0004.6450000e+0004.6450000e+0004.6500000e+0004.6400000e+0004.6250000e+0004.6200000e+0004.6100000e+0004.6300000e+0004.6200000e+0004.6050000e+0004.5950000e+0004.5700000e+0004.5600000e+0004.5500000e+0004.5600000e+0004.5550000e+0004.5550000e+0004.5550000e+0004.5450000e+0004.5500000e+0004.5600000e+0004.5500000e+0004.5400000e+0004.5400000e+0004.5400000e+0004.5400000e+0004.5600000e+0004.5650000e+0004.5550000e+0004.5450000e+0004.5400000e+0004.5550000e+0004.5750000e+0004.5750000e+0004.5750000e+0004.5550000e+0004.5550000e+0004.5600000e+0004.5750000e+0004.5800000e+0004.5800000e+0004.5800000e+0004.5750000e+0004.5850000e+0004.5950000e+0004.6050000e+0004.6100000e+0004.6000000e+0004.6100000e+0004.6200000e+0004.6250000e+0004.6400000e+0004.6250000e+0004.6200000e+0004.6250000e+0004.6400000e+0004.6550000e+0004.6600000e+0004.6700000e+0004.6550000e+0004.6500000e+0004.6700000e+0004.6900000e+0004.6950000e+0004.6800000e+0004.6800000e+0004.6800000e+0004.6850000e+0004.7050000e+0004.7050000e+0004.7000000e+0004.6950000e+0004.6900000e+0004.7100000e+0004.7050000e+0004.7100000e+0004.7050000e+0004.6900000e+0004.6950000e+0004.7100000e+0004.7150000e+0004.7200000e+0004.7100000e+0004.6950000e+0004.7150000e+0004.7100000e+0004.7100000e+0004.7100000e+0004.7150000e+0004.7100000e+0004.7000000e+0004.7050000e+0004.7150000e+0004.7200000e+0004.7200000e+0004.7050000e+0004.7050000e+0004.7000000e+0004.7150000e+0004.7100000e+0004.7200000e+0004.7050000e+0004.7000000e+0004.7100000e+0004.7200000e+0004.7200000e+0004.7200000e+0004.7050000e+0004.7050000e+0004.7150000e+0004.7300000e+0004.7400000e+0004.7250000e+0004.7150000e+0004.7250000e+0004.7250000e+0004.7400000e+0004.7350000e+0004.7200000e+0004.7250000e+0004.7200000e+0004.7450000e+0004.7450000e+0004.7400000e+0004.7350000e+0004.7250000e+0004.7150000e+0004.7300000e+0004.7350000e+0004.7400000e+0004.7400000e+0004.7350000e+0004.7350000e+0004.7350000e+0004.7450000e+0004.7500000e+0004.7400000e+0004.7250000e+0004.7250000e+0004.7500000e+0004.7600000e+0004.7550000e+0004.7550000e+0004.7500000e+0004.7400000e+0004.7600000e+0004.7700000e+0004.7750000e+0004.7700000e+0004.7750000e+0004.7650000e+0004.7700000e+0004.7850000e+0004.7950000e+0004.8000000e+0004.7700000e+0004.7700000e+0004.7650000e+0004.7750000e+0004.7950000e+0004.7900000e+0004.8000000e+0004.8150000e+0004.8050000e+0004.8300000e+0004.8450000e+0004.8600000e+0004.8650000e+0004.8650000e+0004.8800000e+0004.8850000e+0004.8850000e+0004.8700000e+0004.8350000e+0004.8200000e+0004.8350000e+0004.8500000e+0004.8400000e+0004.8300000e+0004.8300000e+0004.8150000e+0004.8200000e+0004.8350000e+0004.8400000e+0004.8500000e+0004.8350000e+0004.8400000e+0004.8450000e+0004.8500000e+0004.8450000e+0004.8350000e+0004.8250000e+0004.8150000e+0004.8200000e+0004.8100000e+0004.8150000e+0004.8050000e+0004.7950000e+0004.7900000e+0004.8000000e+0004.8150000e+0004.8200000e+0004.8150000e+0004.8100000e+0004.7950000e+0004.8000000e+0004.8300000e+0004.8250000e+0004.8300000e+0004.8250000e+0004.8250000e+0004.8300000e+0004.8400000e+0004.8350000e+0004.8250000e+0004.8200000e+0004.8150000e+0004.8350000e+0004.8400000e+0004.8400000e+0004.8250000e+0004.8150000e+0004.8200000e+0004.8250000e+0004.8450000e+0004.8450000e+0004.8550000e+0004.8400000e+0004.8500000e+0004.8500000e+0004.8300000e+0004.7600000e+0004.6850000e+0004.5950000e+0004.4950000e+0004.3700000e+0004.1800000e+0003.9250000e+0003.6600000e+0003.4600000e+0003.4150000e+0003.4550000e+0003.5150000e+0003.5500000e+0003.5900000e+0003.6100000e+0003.6600000e+0003.7100000e+0003.7450000e+0003.7650000e+0003.7900000e+0003.8250000e+0003.8600000e+0003.9200000e+0003.9750000e+0004.0250000e+0004.0550000e+0004.0950000e+0004.1500000e+0004.2450000e+0004.3650000e+0004.4350000e+0004.5050000e+0004.5600000e+0004.6450000e+0004.7100000e+0004.7900000e+0004.8550000e+0004.9050000e+0004.9400000e+0004.9800000e+0005.0400000e+0005.0750000e+0005.0950000e+0005.1150000e+0005.1100000e+0005.1250000e+0005.1250000e+0005.1400000e+0005.1600000e+0005.1650000e+0005.1600000e+0005.1650000e+0005.1850000e+0005.2000000e+0005.2050000e+0005.2150000e+0005.2150000e+0005.2050000e+0005.2300000e+0005.2400000e+0005.2400000e+0005.2500000e+0005.2350000e+0005.2400000e+0005.2500000e+0005.2650000e+0005.2800000e+0005.2750000e+0005.2600000e+0005.2650000e+0005.2800000e+0005.2900000e+0005.2950000e+0005.2800000e+0005.2800000e+0005.2850000e+0005.2950000e+0005.3150000e+0005.3150000e+0005.3100000e+0005.3150000e+0005.3150000e+0005.3200000e+0005.3350000e+0005.3400000e+0005.3450000e+0005.3200000e+0005.3250000e+0005.3300000e+0005.3350000e+0005.3500000e+0005.3400000e+0005.3250000e+0005.3400000e+0005.3400000e+0005.3500000e+0005.3500000e+0005.3400000e+0005.3250000e+0005.3350000e+0005.3450000e+0005.3450000e+0005.3450000e+0005.3400000e+0005.3300000e+0005.3300000e+0005.3300000e+0005.3450000e+0005.3350000e+0005.3250000e+0005.3100000e+0005.3100000e+0005.3100000e+0005.3100000e+0005.3150000e+0005.3000000e+0005.2900000e+0005.2800000e+0005.2900000e+0005.2850000e+0005.2750000e+0005.2650000e+0005.2350000e+0005.2350000e+0005.2350000e+0005.2300000e+0005.2200000e+0005.2050000e+0005.1850000e+0005.1800000e+0005.1700000e+0005.1500000e+0005.1550000e+0005.1500000e+0005.1200000e+0005.1150000e+0005.1200000e+0005.1200000e+0005.1100000e+0005.1050000e+0005.0950000e+0005.0850000e+0005.1000000e+0005.1100000e+0005.1000000e+0005.1050000e+0005.1050000e+0005.0850000e+0005.0950000e+0005.1100000e+0005.1050000e+0005.1100000e+0005.0950000e+0005.0900000e+0005.1050000e+0005.1250000e+0005.1150000e+0005.1000000e+0005.1050000e+0005.1100000e+0005.1150000e+0005.1250000e+0005.1150000e+0005.1300000e+0005.1200000e+0005.1150000e+0005.1250000e+0005.1450000e+0005.1600000e+0005.1550000e+0005.1350000e+0005.1400000e+0005.1350000e+0005.1550000e+0005.1550000e+0005.1550000e+0005.1550000e+0005.1550000e+0005.1800000e+0005.1750000e+0005.1850000e+0005.1750000e+0005.1700000e+0005.1650000e+0005.1900000e+0005.2000000e+0005.2000000e+0005.2000000e+0005.1800000e+0005.1850000e+0005.1950000e+0005.1950000e+0005.2000000e+0005.1900000e+0005.1950000e+0005.1800000e+0005.1900000e+0005.2000000e+0005.1950000e+0005.1950000e+0005.1900000e+0005.1750000e+0005.1900000e+0005.2000000e+0005.2050000e+0005.2050000e+0005.1850000e+0005.1800000e+0005.2000000e+0005.1950000e+0005.1850000e+0005.1900000e+0005.1750000e+0005.1700000e+0005.1850000e+0005.1800000e+0005.1850000e+0005.1750000e+0005.1650000e+0005.1650000e+0005.1700000e+0005.1950000e+0005.1900000e+0005.1900000e+0005.1750000e+0005.1700000e+0005.1850000e+0005.1850000e+0005.1850000e+0005.1950000e+0005.1800000e+0005.1750000e+0005.1950000e+0005.2000000e+0005.2000000e+0005.1850000e+0005.1800000e+0005.1650000e+0005.1850000e+0005.1950000e+0005.1900000e+0005.1850000e+0005.1750000e+0005.1850000e+0005.1900000e+0005.2100000e+0005.2000000e+0005.1950000e+0005.1900000e+0005.1850000e+0005.1900000e+0005.2050000e+0005.2050000e+0005.2000000e+0005.1900000e+0005.1750000e+0005.1900000e+0005.2100000e+0005.2000000e+0005.2100000e+0005.1950000e+0005.1900000e+0005.2050000e+0005.2150000e+0005.2050000e+0005.2050000e+0005.2100000e+0005.1950000e+0005.2050000e+0005.2100000e+0005.2150000e+0005.2050000e+0005.2050000e+0005.2000000e+0005.2000000e+0005.2100000e+0005.2200000e+0005.2200000e+0005.2100000e+0005.2250000e+0005.2400000e+0005.2500000e+0005.2600000e+0005.2700000e+0005.2700000e+0005.2800000e+0005.3050000e+0005.3100000e+0005.3100000e+0005.3200000e+0005.3000000e+0005.2900000e+0005.2700000e+0005.2750000e+0005.2750000e+0005.2650000e+0005.2500000e+0005.2400000e+0005.2500000e+0005.2550000e+0005.2600000e+0005.2650000e+0005.2750000e+0005.2700000e+0005.2800000e+0005.2700000e+0005.2600000e+0005.2500000e+0005.2400000e+0005.2300000e+0005.2250000e+0005.2300000e+0005.2150000e+0005.2200000e+0005.2150000e+0005.2050000e+0005.2200000e+0005.2300000e+0005.2300000e+0005.2300000e+0005.2250000e+0005.2200000e+0005.2250000e+0005.2350000e+0005.2300000e+0005.2300000e+0005.2100000e+0005.2100000e+0005.2200000e+0005.2250000e+0005.2300000e+0005.2200000e+0005.2200000e+0005.2100000e+0005.2300000e+0005.2350000e+0005.2300000e+0005.2250000e+0005.2050000e+0005.2050000e+0005.2200000e+0005.2350000e+0005.2300000e+0005.2200000e+0005.2250000e+0005.2300000e+0005.2400000e+0005.2150000e+0005.1400000e+0005.0600000e+0004.9450000e+0004.8250000e+0004.6950000e+0004.5150000e+0004.2650000e+0003.9800000e+0003.7650000e+0003.6800000e+0003.7150000e+0003.7800000e+0003.8300000e+0003.8800000e+0003.9200000e+0003.9650000e+0004.0150000e+0004.0450000e+0004.0650000e+0004.1000000e+0004.1300000e+0004.1800000e+0004.2250000e+0004.2800000e+0004.3500000e+0004.4000000e+0004.4350000e+0004.5000000e+0004.5850000e+0004.6900000e+0004.7700000e+0004.8450000e+0004.9100000e+0004.9650000e+0005.0550000e+0005.1200000e+0005.1750000e+0005.2300000e+0005.2650000e+0005.3150000e+0005.3600000e+0005.4000000e+0005.4100000e+0005.4250000e+0005.4300000e+0005.4350000e+0005.4450000e+0005.4650000e+0005.4600000e+0005.4750000e+0005.4700000e+0005.4650000e+0005.4800000e+0005.5050000e+0005.5000000e+0005.5150000e+0005.5050000e+0005.5150000e+0005.5250000e+0005.5350000e+0005.5250000e+0005.5200000e+0005.5300000e+0005.5200000e+0005.5350000e+0005.5300000e+0005.5500000e+0005.5400000e+0005.5400000e+0005.5300000e+0005.5500000e+0005.5550000e+0005.5600000e+0005.5550000e+0005.5550000e+0005.5600000e+0005.5600000e+0005.5750000e+0005.5750000e+0005.5800000e+0005.5550000e+0005.5650000e+0005.5650000e+0005.5750000e+0005.5800000e+0005.5800000e+0005.5600000e+0005.5500000e+0005.5650000e+0005.5800000e+0005.5700000e+0005.5650000e+0005.5650000e+0005.5550000e+0005.5600000e+0005.5800000e+0005.5850000e+0005.5650000e+0005.5600000e+0005.5600000e+0005.5700000e+0005.5700000e+0005.5600000e+0005.5550000e+0005.5400000e+0005.5300000e+0005.5350000e+0005.5350000e+0005.5300000e+0005.5150000e+0005.4900000e+0005.4900000e+0005.5150000e+0005.5150000e+0005.5150000e+0005.5000000e+0005.4900000e+0005.4700000e+0005.4800000e+0005.4650000e+0005.4650000e+0005.4550000e+0005.4350000e+0005.4350000e+0005.4200000e+0005.4350000e+0005.4200000e+0005.4050000e+0005.3800000e+0005.3750000e+0005.3700000e+0005.3700000e+0005.3500000e+0005.3550000e+0005.3300000e+0005.3400000e+0005.3350000e+0005.3500000e+0005.3350000e+0005.3300000e+0005.3100000e+0005.3050000e+0005.3200000e+0005.3250000e+0005.3300000e+0005.3250000e+0005.3050000e+0005.3050000e+0005.3150000e+0005.3300000e+0005.3150000e+0005.3200000e+0005.3100000e+0005.3150000e+0005.3200000e+0005.3350000e+0005.3350000e+0005.3450000e+0005.3250000e+0005.3250000e+0005.3300000e+0005.3450000e+0005.3400000e+0005.3450000e+0005.3300000e+0005.3250000e+0005.3350000e+0005.3500000e+0005.3500000e+0005.3400000e+0005.3350000e+0005.3250000e+0005.3450000e+0005.3600000e+0005.3550000e+0005.3500000e+0005.3450000e+0005.3500000e+0005.3550000e+0005.3650000e+0005.3650000e+0005.3600000e+0005.3550000e+0005.3550000e+0005.3500000e+0005.3700000e+0005.3650000e+0005.3600000e+0005.3500000e+0005.3550000e+0005.3550000e+0005.3650000e+0005.3550000e+0005.3600000e+0005.3450000e+0005.3450000e+0005.3550000e+0005.3600000e+0005.3600000e+0005.3550000e+0005.3450000e+0005.3400000e+0005.3350000e+0005.3650000e+0005.3550000e+0005.3400000e+0005.3300000e+0005.3150000e+0005.3250000e+0005.3400000e+0005.3300000e+0005.3300000e+0005.3100000e+0005.3200000e+0005.3150000e+0005.3300000e+0005.3350000e+0005.3250000e+0005.3200000e+0005.3250000e+0005.3300000e+0005.3300000e+0005.3250000e+0005.3150000e+0005.3300000e+0005.3200000e+0005.3250000e+0005.3350000e+0005.3250000e+0005.3300000e+0005.3200000e+0005.3200000e+0005.3200000e+0005.3300000e+0005.3400000e+0005.3200000e+0005.3100000e+0005.3250000e+0005.3350000e+0005.3200000e+0005.3250000e+0005.3150000e+0005.3200000e+0005.3300000e+0005.3400000e+0005.3350000e+0005.3200000e+0005.3150000e+0005.3000000e+0005.3050000e+0005.3250000e+0005.3250000e+0005.3350000e+0005.3100000e+0005.3150000e+0005.3150000e+0005.3200000e+0005.3250000e+0005.3200000e+0005.3100000e+0005.3200000e+0005.3200000e+0005.3350000e+0005.3250000e+0005.3300000e+0005.3200000e+0005.3100000e+0005.3150000e+0005.3200000e+0005.3200000e+0005.3150000e+0005.3200000e+0005.3100000e+0005.3200000e+0005.3250000e+0005.3300000e+0005.3250000e+0005.3150000e+0005.3100000e+0005.3200000e+0005.3300000e+0005.3350000e+0005.3500000e+0005.3200000e+0005.3250000e+0005.3250000e+0005.3500000e+0005.3500000e+0005.3450000e+0005.3250000e+0005.3300000e+0005.3350000e+0005.3700000e+0005.3600000e+0005.3650000e+0005.3650000e+0005.3600000e+0005.4000000e+0005.4200000e+0005.4150000e+0005.4200000e+0005.4150000e+0005.4200000e+0005.4200000e+0005.4200000e+0005.4150000e+0005.3950000e+0005.3850000e+0005.3850000e+0005.3700000e+0005.3700000e+0005.3750000e+0005.3650000e+0005.3600000e+0005.3500000e+0005.3700000e+0005.3800000e+0005.3600000e+0005.3650000e+0005.3550000e+0005.3400000e+0005.3600000e+0005.3650000e+0005.3500000e+0005.3400000e+0005.3350000e+0005.3100000e+0005.3200000e+0005.3300000e+0005.3200000e+0005.3100000e+0005.3100000e+0005.3100000e+0005.3150000e+0005.3300000e+0005.3300000e+0005.3150000e+0005.3000000e+0005.3000000e+0005.3050000e+0005.3300000e+0005.3250000e+0005.3200000e+0005.2950000e+0005.3050000e+0005.3100000e+0005.3300000e+0005.3200000e+0005.3250000e+0005.3100000e+0005.3100000e+0005.3200000e+0005.3150000e+0005.3150000e+0005.3150000e+0005.3050000e+0005.2950000e+0005.3100000e+0005.3150000e+0005.3150000e+0005.3150000e+0005.3200000e+0005.3200000e+0005.3050000e+0005.2800000e+0005.2150000e+0005.1450000e+0005.0500000e+0004.9400000e+0004.8100000e+0004.6050000e+0004.3600000e+0004.0950000e+0003.9200000e+0003.8650000e+0003.8950000e+0003.9500000e+0003.9850000e+0004.0150000e+0004.0400000e+0004.0800000e+0004.1250000e+0004.1700000e+0004.1750000e+0004.2150000e+0004.2550000e+0004.2900000e+0004.3450000e+0004.4000000e+0004.4500000e+0004.4850000e+0004.5150000e+0004.5750000e+0004.6800000e+0004.7750000e+0004.8600000e+0004.9200000e+0004.9900000e+0005.0650000e+0005.1400000e+0005.2150000e+0005.2800000e+0005.3150000e+0005.3500000e+0005.3900000e+0005.4400000e+0005.4700000e+0005.5100000e+0005.5200000e+0005.5250000e+0005.5250000e+0005.5400000e+0005.5550000e+0005.5750000e+0005.5600000e+0005.5750000e+0005.5650000e+0005.5850000e+0005.6100000e+0005.6100000e+0005.5950000e+0005.6000000e+0005.5950000e+0005.6150000e+0005.6300000e+0005.6400000e+0005.6450000e+0005.6250000e+0005.6450000e+0005.6500000e+0005.6650000e+0005.6600000e+0005.6500000e+0005.6500000e+0005.6450000e+0005.6550000e+0005.6550000e+0005.6600000e+0005.6650000e+0005.6600000e+0005.6600000e+0005.6650000e+0005.6850000e+0005.6850000e+0005.6700000e+0005.6800000e+0005.6700000e+0005.6800000e+0005.6950000e+0005.6950000e+0005.7000000e+0005.6900000e+0005.6950000e+0005.7050000e+0005.7050000e+0005.7050000e+0005.7050000e+0005.6900000e+0005.6850000e+0005.6850000e+0005.7000000e+0005.6950000e+0005.6900000e+0005.6750000e+0005.6700000e+0005.6750000e+0005.6900000e+0005.6850000e+0005.6800000e+0005.6650000e+0005.6700000e+0005.6500000e+0005.6650000e+0005.6650000e+0005.6450000e+0005.6400000e+0005.6250000e+0005.6200000e+0005.6250000e+0005.6250000e+0005.6050000e+0005.5850000e+0005.5650000e+0005.5750000e+0005.5750000e+0005.5600000e+0005.5450000e+0005.5300000e+0005.5250000e+0005.5100000e+0005.5000000e+0005.4900000e+0005.4700000e+0005.4450000e+0005.4350000e+0005.4400000e+0005.4350000e+0005.4300000e+0005.4100000e+0005.4000000e+0005.3850000e+0005.3900000e+0005.3900000e+0005.4000000e+0005.3950000e+0005.3750000e+0005.3650000e+0005.3850000e+0005.3800000e+0005.3800000e+0005.3800000e+0005.3650000e+0005.3600000e+0005.3650000e+0005.3850000e+0005.3750000e+0005.3750000e+0005.3800000e+0005.3700000e+0005.3850000e+0005.3900000e+0005.3900000e+0005.4000000e+0005.3900000e+0005.3850000e+0005.4000000e+0005.4150000e+0005.4250000e+0005.4200000e+0005.4150000e+0005.4050000e+0005.4200000e+0005.4350000e+0005.4200000e+0005.4200000e+0005.4050000e+0005.4150000e+0005.4250000e+0005.4400000e+0005.4350000e+0005.4450000e+0005.4450000e+0005.4350000e+0005.4500000e+0005.4650000e+0005.4650000e+0005.4700000e+0005.4550000e+0005.4400000e+0005.4600000e+0005.4650000e+0005.4600000e+0005.4700000e+0005.4550000e+0005.4350000e+0005.4550000e+0005.4450000e+0005.4500000e+0005.4400000e+0005.4350000e+0005.4350000e+0005.4500000e+0005.4600000e+0005.4700000e+0005.4600000e+0005.4550000e+0005.4450000e+0005.4500000e+0005.4550000e+0005.4500000e+0005.4350000e+0005.4300000e+0005.4350000e+0005.4350000e+0005.4400000e+0005.4300000e+0005.4300000e+0005.4200000e+0005.4150000e+0005.4150000e+0005.4400000e+0005.4400000e+0005.4400000e+0005.4250000e+0005.4200000e+0005.4350000e+0005.4350000e+0005.4350000e+0005.4300000e+0005.4250000e+0005.4250000e+0005.4250000e+0005.4400000e+0005.4450000e+0005.4250000e+0005.4200000e+0005.4100000e+0005.4300000e+0005.4400000e+0005.4400000e+0005.4350000e+0005.4300000e+0005.4250000e+0005.4200000e+0005.4350000e+0005.4250000e+0005.4200000e+0005.4300000e+0005.4100000e+0005.4200000e+0005.4300000e+0005.4400000e+0005.4150000e+0005.4000000e+0005.4000000e+0005.4200000e+0005.4350000e+0005.4300000e+0005.4200000e+0005.4200000e+0005.4200000e+0005.4300000e+0005.4350000e+0005.4350000e+0005.4300000e+0005.4100000e+0005.4150000e+0005.4150000e+0005.4250000e+0005.4250000e+0005.4050000e+0005.4150000e+0005.4100000e+0005.4200000e+0005.4350000e+0005.4250000e+0005.4350000e+0005.4400000e+0005.4500000e+0005.4700000e+0005.4900000e+0005.4950000e+0005.5150000e+0005.5000000e+0005.5050000e+0005.5200000e+0005.5200000e+0005.5000000e+0005.4750000e+0005.4450000e+0005.4450000e+0005.4500000e+0005.4600000e+0005.4550000e+0005.4500000e+0005.4300000e+0005.4400000e+0005.4500000e+0005.4750000e+0005.4800000e+0005.4600000e+0005.4500000e+0005.4350000e+0005.4400000e+0005.4400000e+0005.4350000e+0005.4150000e+0005.3850000e+0005.3850000e+0005.3900000e+0005.4050000e+0005.4050000e+0005.3950000e+0005.3750000e+0005.3900000e+0005.3850000e+0005.4050000e+0005.3950000e+0005.4000000e+0005.3850000e+0005.3800000e+0005.3850000e+0005.3950000e+0005.4000000e+0005.3900000e+0005.3750000e+0005.3850000e+0005.3900000e+0005.3900000e+0005.3900000e+0005.3850000e+0005.3800000e+0005.3750000e+0005.3850000e+0005.3950000e+0005.3850000e+0005.3950000e+0005.3800000e+0005.3800000e+0005.4000000e+0005.4100000e+0005.4100000e+0005.4050000e+0005.3500000e+0005.2800000e+0005.2150000e+0005.1200000e+0004.9950000e+0004.8150000e+0004.5600000e+0004.2750000e+0004.0100000e+0003.8750000e+0003.8650000e+0003.9150000e+0003.9500000e+0003.9900000e+0004.0400000e+0004.0950000e+0004.1550000e+0004.1750000e+0004.1950000e+0004.1950000e+0004.2500000e+0004.3150000e+0004.3650000e+0004.4050000e+0004.4600000e+0004.5200000e+0004.5600000e+0004.6400000e+0004.7200000e+0004.8200000e+0004.9100000e+0004.9950000e+0005.0900000e+0005.1900000e+0005.2650000e+0005.3350000e+0005.3850000e+0005.4450000e+0005.5300000e+0005.5700000e+0005.6100000e+0005.6050000e+0005.6200000e+0005.6400000e+0005.6500000e+0005.6800000e+0005.6850000e+0005.7000000e+0005.6900000e+0005.7050000e+0005.7300000e+0005.7450000e+0005.7600000e+0005.7500000e+0005.7500000e+0005.7600000e+0005.7750000e+0005.7900000e+0005.7800000e+0005.7950000e+0005.7750000e+0005.7700000e+0005.7900000e+0005.8000000e+0005.7950000e+0005.7950000e+0005.7950000e+0005.7900000e+0005.8150000e+0005.8250000e+0005.8200000e+0005.8100000e+0005.8100000e+0005.8200000e+0005.8350000e+0005.8400000e+0005.8250000e+0005.8300000e+0005.8250000e+0005.8350000e+0005.8350000e+0005.8500000e+0005.8500000e+0005.8350000e+0005.8400000e+0005.8350000e+0005.8500000e+0005.8600000e+0005.8550000e+0005.8600000e+0005.8600000e+0005.8400000e+0005.8350000e+0005.8650000e+0005.8550000e+0005.8550000e+0005.8350000e+0005.8500000e+0005.8400000e+0005.8450000e+0005.8350000e+0005.8250000e+0005.8100000e+0005.8100000e+0005.8150000e+0005.8250000e+0005.8250000e+0005.8000000e+0005.7750000e+0005.7750000e+0005.7800000e+0005.7750000e+0005.7750000e+0005.7500000e+0005.7200000e+0005.7100000e+0005.7000000e+0005.6900000e+0005.6750000e+0005.6650000e+0005.6350000e+0005.6250000e+0005.6300000e+0005.6250000e+0005.6250000e+0005.5900000e+0005.5600000e+0005.5700000e+0005.5800000e+0005.5950000e+0005.5850000e+0005.5650000e+0005.5450000e+0005.5450000e+0005.5550000e+0005.5700000e+0005.5600000e+0005.5600000e+0005.5550000e+0005.5550000e+0005.5650000e+0005.5800000e+0005.5700000e+0005.5600000e+0005.5550000e+0005.5500000e+0005.5750000e+0005.5950000e+0005.5900000e+0005.5900000e+0005.5850000e+0005.5750000e+0005.5800000e+0005.5900000e+0005.5950000e+0005.6000000e+0005.5750000e+0005.5850000e+0005.6000000e+0005.6100000e+0005.6050000e+0005.6100000e+0005.5950000e+0005.5950000e+0005.6200000e+0005.6300000e+0005.6300000e+0005.6250000e+0005.6050000e+0005.6100000e+0005.6300000e+0005.6350000e+0005.6300000e+0005.6250000e+0005.6200000e+0005.6100000e+0005.6150000e+0005.6450000e+0005.6350000e+0005.6250000e+0005.6250000e+0005.6300000e+0005.6300000e+0005.6350000e+0005.6300000e+0005.6250000e+0005.6100000e+0005.6100000e+0005.6000000e+0005.6150000e+0005.6100000e+0005.6100000e+0005.6000000e+0005.5900000e+0005.5950000e+0005.6100000e+0005.6100000e+0005.5900000e+0005.5850000e+0005.5950000e+0005.6100000e+0005.6100000e+0005.5950000e+0005.5900000e+0005.5700000e+0005.5600000e+0005.5600000e+0005.5850000e+0005.5800000e+0005.5800000e+0005.5700000e+0005.5500000e+0005.5500000e+0005.5750000e+0005.5650000e+0005.5650000e+0005.5500000e+0005.5450000e+0005.5600000e+0005.5700000e+0005.5700000e+0005.5600000e+0005.5550000e+0005.5400000e+0005.5550000e+0005.5600000e+0005.5550000e+0005.5500000e+0005.5550000e+0005.5450000e+0005.5500000e+0005.5650000e+0005.5450000e+0005.5500000e+0005.5450000e+0005.5450000e+0005.5600000e+0005.5750000e+0005.5750000e+0005.5700000e+0005.5600000e+0005.5500000e+0005.5450000e+0005.5550000e+0005.5600000e+0005.5600000e+0005.5500000e+0005.5450000e+0005.5450000e+0005.5650000e+0005.5450000e+0005.5550000e+0005.5400000e+0005.5500000e+0005.5600000e+0005.5650000e+0005.5600000e+0005.5600000e+0005.5550000e+0005.5600000e+0005.5650000e+0005.5850000e+0005.5950000e+0005.6000000e+0005.5950000e+0005.6100000e+0005.6250000e+0005.6400000e+0005.6550000e+0005.6550000e+0005.6450000e+0005.6400000e+0005.6650000e+0005.6500000e+0005.6300000e+0005.6200000e+0005.6100000e+0005.6050000e+0005.6100000e+0005.6100000e+0005.6050000e+0005.6000000e+0005.5900000e+0005.5750000e+0005.6050000e+0005.6200000e+0005.5950000e+0005.5900000e+0005.5750000e+0005.5700000e+0005.5750000e+0005.5700000e+0005.5600000e+0005.5550000e+0005.5350000e+0005.5400000e+0005.5350000e+0005.5600000e+0005.5550000e+0005.5350000e+0005.5250000e+0005.5200000e+0005.5250000e+0005.5350000e+0005.5350000e+0005.5300000e+0005.5150000e+0005.5150000e+0005.5250000e+0005.5400000e+0005.5400000e+0005.5400000e+0005.5300000e+0005.5350000e+0005.5450000e+0005.5650000e+0005.5450000e+0005.5300000e+0005.5250000e+0005.5250000e+0005.5450000e+0005.5350000e+0005.5350000e+0005.5300000e+0005.5100000e+0005.5200000e+0005.5150000e+0005.5300000e+0005.5500000e+0005.5400000e+0005.4750000e+0005.3750000e+0005.2300000e+0005.0600000e+0004.8200000e+0004.5650000e+0004.2450000e+0003.9550000e+0003.7350000e+0003.6600000e+0003.6900000e+0003.7600000e+0003.8050000e+0003.8550000e+0003.9200000e+0003.9900000e+0004.0200000e+0004.0450000e+0004.0600000e+0004.1300000e+0004.2000000e+0004.3000000e+0004.3650000e+0004.4300000e+0004.4900000e+0004.5550000e+0004.6500000e+0004.7850000e+0004.9000000e+0005.0250000e+0005.1100000e+0005.2100000e+0005.3100000e+0005.4050000e+0005.4800000e+0005.5600000e+0005.6300000e+0005.7050000e+0005.7500000e+0005.7950000e+0005.8150000e+0005.8400000e+0005.8400000e+0005.8550000e+0005.8750000e+0005.9000000e+0005.8950000e+0005.9100000e+0005.9100000e+0005.9250000e+0005.9250000e+0005.9500000e+0005.9500000e+0005.9550000e+0005.9500000e+0005.9600000e+0005.9750000e+0005.9850000e+0005.9900000e+0005.9800000e+0005.9900000e+0006.0000000e+0006.0150000e+0006.0350000e+0006.0400000e+0006.0200000e+0006.0000000e+0006.0050000e+0006.0200000e+0006.0350000e+0006.0350000e+0006.0300000e+0006.0250000e+0006.0250000e+0006.0400000e+0006.0550000e+0006.0550000e+0006.0550000e+0006.0550000e+0006.0550000e+0006.0650000e+0006.0850000e+0006.0850000e+0006.0900000e+0006.0700000e+0006.0700000e+0006.0750000e+0006.0750000e+0006.0900000e+0006.0750000e+0006.0800000e+0006.0600000e+0006.0750000e+0006.0800000e+0006.0750000e+0006.0650000e+0006.0650000e+0006.0650000e+0006.0700000e+0006.0700000e+0006.0750000e+0006.0600000e+0006.0500000e+0006.0400000e+0006.0450000e+0006.0350000e+0006.0200000e+0006.0050000e+0005.9950000e+0005.9750000e+0005.9650000e+0005.9700000e+0005.9550000e+0005.9350000e+0005.8950000e+0005.8800000e+0005.8800000e+0005.8800000e+0005.8700000e+0005.8350000e+0005.8200000e+0005.8000000e+0005.7950000e+0005.7950000e+0005.7750000e+0005.7750000e+0005.7600000e+0005.7600000e+0005.7550000e+0005.7500000e+0005.7300000e+0005.7250000e+0005.7100000e+0005.7150000e+0005.7250000e+0005.7200000e+0005.7200000e+0005.7350000e+0005.7150000e+0005.7050000e+0005.7150000e+0005.7350000e+0005.7400000e+0005.7350000e+0005.7250000e+0005.7300000e+0005.7250000e+0005.7350000e+0005.7400000e+0005.7300000e+0005.7300000e+0005.7250000e+0005.7450000e+0005.7600000e+0005.7550000e+0005.7600000e+0005.7500000e+0005.7650000e+0005.7750000e+0005.7900000e+0005.7800000e+0005.7900000e+0005.7800000e+0005.7800000e+0005.7800000e+0005.7950000e+0005.8050000e+0005.8050000e+0005.7850000e+0005.7950000e+0005.8100000e+0005.8100000e+0005.8100000e+0005.8050000e+0005.7900000e+0005.7950000e+0005.8100000e+0005.8300000e+0005.8350000e+0005.8200000e+0005.8250000e+0005.8000000e+0005.8150000e+0005.8250000e+0005.8300000e+0005.8200000e+0005.8150000e+0005.7950000e+0005.8100000e+0005.8300000e+0005.8300000e+0005.8250000e+0005.8100000e+0005.8150000e+0005.8200000e+0005.8200000e+0005.8200000e+0005.8150000e+0005.8050000e+0005.7900000e+0005.8100000e+0005.8100000e+0005.8000000e+0005.7900000e+0005.7900000e+0005.7950000e+0005.8050000e+0005.8050000e+0005.7900000e+0005.7950000e+0005.7800000e+0005.7750000e+0005.7900000e+0005.7950000e+0005.8000000e+0005.8000000e+0005.7800000e+0005.7750000e+0005.7800000e+0005.7900000e+0005.8000000e+0005.7950000e+0005.7950000e+0005.7700000e+0005.7850000e+0005.7750000e+0005.7850000e+0005.7700000e+0005.7650000e+0005.7600000e+0005.7700000e+0005.7750000e+0005.7750000e+0005.7750000e+0005.7600000e+0005.7500000e+0005.7500000e+0005.7650000e+0005.7550000e+0005.7550000e+0005.7450000e+0005.7400000e+0005.7350000e+0005.7500000e+0005.7350000e+0005.7350000e+0005.7200000e+0005.7300000e+0005.7200000e+0005.7300000e+0005.7200000e+0005.7100000e+0005.7000000e+0005.6950000e+0005.7000000e+0005.7150000e+0005.7200000e+0005.7000000e+0005.7000000e+0005.7050000e+0005.7100000e+0005.7300000e+0005.7100000e+0005.7000000e+0005.6900000e+0005.6850000e+0005.6800000e+0005.7000000e+0005.7050000e+0005.7050000e+0005.6950000e+0005.7050000e+0005.7250000e+0005.7350000e+0005.7300000e+0005.7350000e+0005.7350000e+0005.7500000e+0005.7600000e+0005.7700000e+0005.7850000e+0005.7850000e+0005.7650000e+0005.7450000e+0005.7200000e+0005.7300000e+0005.7100000e+0005.6950000e+0005.6800000e+0005.6850000e+0005.6900000e+0005.6950000e+0005.6950000e+0005.6850000e+0005.6800000e+0005.6650000e+0005.6750000e+0005.6900000e+0005.6800000e+0005.6650000e+0005.6500000e+0005.6400000e+0005.6350000e+0005.6400000e+0005.6250000e+0005.6250000e+0005.6100000e+0005.5950000e+0005.6150000e+0005.6150000e+0005.6250000e+0005.6250000e+0005.5950000e+0005.5950000e+0005.6150000e+0005.6200000e+0005.6100000e+0005.6050000e+0005.6000000e+0005.5800000e+0005.5950000e+0005.6000000e+0005.6050000e+0005.5900000e+0005.5800000e+0005.5800000e+0005.6000000e+0005.5850000e+0005.5850000e+0005.5800000e+0005.5550000e+0005.5700000e+0005.5850000e+0005.5950000e+0005.6000000e+0005.5700000e+0005.5100000e+0005.4100000e+0005.3100000e+0005.1800000e+0005.0100000e+0004.7900000e+0004.4650000e+0004.1400000e+0003.9400000e+0003.8850000e+0003.9250000e+0003.9750000e+0004.0100000e+0004.0650000e+0004.1200000e+0004.1800000e+0004.2100000e+0004.2350000e+0004.2600000e+0004.2900000e+0004.3650000e+0004.4450000e+0004.4950000e+0004.5600000e+0004.6000000e+0004.6400000e+0004.7500000e+0004.8700000e+0004.9800000e+0005.0850000e+0005.1550000e+0005.2450000e+0005.3300000e+0005.4200000e+0005.5000000e+0005.5650000e+0005.6000000e+0005.6550000e+0005.7050000e+0005.7450000e+0005.7700000e+0005.7700000e+0005.7600000e+0005.7800000e+0005.7850000e+0005.8100000e+0005.8150000e+0005.8150000e+0005.8200000e+0005.8200000e+0005.8350000e+0005.8450000e+0005.8600000e+0005.8450000e+0005.8450000e+0005.8550000e+0005.8700000e+0005.8700000e+0005.8800000e+0005.8650000e+0005.8650000e+0005.8750000e+0005.8650000e+0005.8800000e+0005.8700000e+0005.8850000e+0005.8700000e+0005.8700000e+0005.8750000e+0005.8900000e+0005.8900000e+0005.8900000e+0005.8800000e+0005.8800000e+0005.8950000e+0005.9150000e+0005.9050000e+0005.9100000e+0005.9150000e+0005.9000000e+0005.9050000e+0005.9050000e+0005.9100000e+0005.9100000e+0005.8900000e+0005.8950000e+0005.9100000e+0005.9050000e+0005.9100000e+0005.8900000e+0005.8850000e+0005.8800000e+0005.8800000e+0005.9000000e+0005.8950000e+0005.8950000e+0005.8750000e+0005.8700000e+0005.8800000e+0005.8850000e+0005.8750000e+0005.8750000e+0005.8600000e+0005.8600000e+0005.8500000e+0005.8500000e+0005.8500000e+0005.8350000e+0005.8250000e+0005.8050000e+0005.8000000e+0005.7900000e+0005.7950000e+0005.7800000e+0005.7650000e+0005.7500000e+0005.7400000e+0005.7350000e+0005.7200000e+0005.7000000e+0005.6750000e+0005.6500000e+0005.6500000e+0005.6550000e+0005.6500000e+0005.6150000e+0005.5950000e+0005.5800000e+0005.5800000e+0005.5850000e+0005.5700000e+0005.5550000e+0005.5450000e+0005.5300000e+0005.5300000e+0005.5400000e+0005.5300000e+0005.5250000e+0005.5150000e+0005.5100000e+0005.5250000e+0005.5350000e+0005.5150000e+0005.5050000e+0005.4850000e+0005.4900000e+0005.5000000e+0005.5100000e+0005.5100000e+0005.5150000e+0005.5050000e+0005.4950000e+0005.5050000e+0005.5250000e+0005.5200000e+0005.5200000e+0005.5200000e+0005.5200000e+0005.5200000e+0005.5400000e+0005.5350000e+0005.5250000e+0005.5300000e+0005.5200000e+0005.5300000e+0005.5400000e+0005.5450000e+0005.5400000e+0005.5250000e+0005.5300000e+0005.5500000e+0005.5650000e+0005.5700000e+0005.5650000e+0005.5400000e+0005.5500000e+0005.5650000e+0005.5700000e+0005.5650000e+0005.5700000e+0005.5650000e+0005.5550000e+0005.5800000e+0005.5700000e+0005.5700000e+0005.5600000e+0005.5450000e+0005.5550000e+0005.5600000e+0005.5750000e+0005.5750000e+0005.5500000e+0005.5450000e+0005.5450000e+0005.5400000e+0005.5600000e+0005.5500000e+0005.5500000e+0005.5450000e+0005.5500000e+0005.5500000e+0005.5500000e+0005.5350000e+0005.5350000e+0005.5250000e+0005.5100000e+0005.5150000e+0005.5200000e+0005.5200000e+0005.5200000e+0005.5000000e+0005.5050000e+0005.5100000e+0005.5150000e+0005.5100000e+0005.4950000e+0005.4850000e+0005.4800000e+0005.5000000e+0005.5150000e+0005.5100000e+0005.5050000e+0005.5000000e+0005.4850000e+0005.4900000e+0005.5100000e+0005.5100000e+0005.5000000e+0005.4700000e+0005.4600000e+0005.4750000e+0005.4850000e+0005.4850000e+0005.4800000e+0005.4750000e+0005.4750000e+0005.4800000e+0005.4750000e+0005.4850000e+0005.4850000e+0005.4750000e+0005.4850000e+0005.4900000e+0005.4950000e+0005.4900000e+0005.4800000e+0005.4600000e+0005.4650000e+0005.4700000e+0005.4800000e+0005.4750000e+0005.4800000e+0005.4650000e+0005.4600000e+0005.4750000e+0005.4750000e+0005.4650000e+0005.4550000e+0005.4550000e+0005.4600000e+0005.4700000e+0005.4850000e+0005.4750000e+0005.4750000e+0005.4500000e+0005.4700000e+0005.4700000e+0005.4650000e+0005.4600000e+0005.4550000e+0005.4400000e+0005.4500000e+0005.4600000e+0005.4650000e+0005.4550000e+0005.4500000e+0005.4400000e+0005.4350000e+0005.4500000e+0005.4550000e+0005.4550000e+0005.4500000e+0005.4450000e+0005.4400000e+0005.4600000e+0005.4650000e+0005.4850000e+0005.4750000e+0005.4750000e+0005.4800000e+0005.5000000e+0005.5300000e+0005.5300000e+0005.5200000e+0005.5200000e+0005.5200000e+0005.5250000e+0005.5100000e+0005.4950000e+0005.4750000e+0005.4700000e+0005.4600000e+0005.4650000e+0005.4550000e+0005.4650000e+0005.4500000e+0005.4450000e+0005.4500000e+0005.4500000e+0005.4500000e+0005.4500000e+0005.4200000e+0005.4100000e+0005.4200000e+0005.4250000e+0005.4300000e+0005.4150000e+0005.4150000e+0005.3900000e+0005.3800000e+0005.3800000e+0005.3850000e+0005.3900000e+0005.3850000e+0005.3800000e+0005.3750000e+0005.3800000e+0005.3700000e+0005.3850000e+0005.3600000e+0005.3700000e+0005.3600000e+0005.3700000e+0005.3950000e+0005.3650000e+0005.3650000e+0005.3500000e+0005.3600000e+0005.3650000e+0005.3700000e+0005.3700000e+0005.3650000e+0005.3500000e+0005.3400000e+0005.3550000e+0005.3550000e+0005.3450000e+0005.3450000e+0005.3300000e+0005.3400000e+0005.3400000e+0005.3350000e+0005.3350000e+0005.3400000e+0005.3500000e+0005.3450000e+0005.3350000e+0005.2850000e+0005.2150000e+0005.1100000e+0004.9650000e+0004.8100000e+0004.6300000e+0004.4250000e+0004.1250000e+0003.8600000e+0003.6450000e+0003.5700000e+0003.6150000e+0003.6750000e+0003.7300000e+0003.7700000e+0003.8150000e+0003.8600000e+0003.9200000e+0003.9600000e+0003.9750000e+0003.9900000e+0004.0300000e+0004.0650000e+0004.1250000e+0004.2050000e+0004.2450000e+0004.3050000e+0004.3400000e+0004.4000000e+0004.4850000e+0004.5850000e+0004.6950000e+0004.7900000e+0004.8700000e+0004.9550000e+0005.0450000e+0005.1400000e+0005.2050000e+0005.2550000e+0005.3100000e+0005.3950000e+0005.4650000e+0005.5200000e+0005.5450000e+0005.5650000e+0005.5650000e+0005.5650000e+0005.5800000e+0005.6050000e+0005.6150000e+0005.6300000e+0005.6200000e+0005.6200000e+0005.6300000e+0005.6500000e+0005.6650000e+0005.6800000e+0005.6550000e+0005.6450000e+0005.6500000e+0005.6650000e+0005.6750000e+0005.6700000e+0005.6600000e+0005.6550000e+0005.6600000e+0005.6700000e+0005.6950000e+0005.6900000e+0005.6750000e+0005.6650000e+0005.6800000e+0005.7000000e+0005.7050000e+0005.6950000e+0005.6800000e+0005.6850000e+0005.6850000e+0005.6850000e+0005.6700000e+0005.6700000e+0005.6750000e+0005.6850000e+0005.6900000e+0005.6900000e+0005.6850000e+0005.6800000e+0005.6650000e+0005.6650000e+0005.6850000e+0005.6900000e+0005.6950000e+0005.6900000e+0005.6850000e+0005.6800000e+0005.6950000e+0005.7150000e+0005.7000000e+0005.6900000e+0005.6700000e+0005.6650000e+0005.6550000e+0005.6500000e+0005.6450000e+0005.6500000e+0005.6550000e+0005.6750000e+0005.6450000e+0005.6250000e+0005.6050000e+0005.6000000e+0005.6000000e+0005.6050000e+0005.6200000e+0005.6200000e+0005.6050000e+0005.6050000e+0005.5850000e+0005.5900000e+0005.5800000e+0005.5650000e+0005.5400000e+0005.5250000e+0005.5200000e+0005.5050000e+0005.5000000e+0005.4950000e+0005.4900000e+0005.4650000e+0005.4500000e+0005.4200000e+0005.4100000e+0005.4150000e+0005.4100000e+0005.3900000e+0005.3650000e+0005.3550000e+0005.3600000e+0005.3650000e+0005.3350000e+0005.3100000e+0005.2900000e+0005.2850000e+0005.3000000e+0005.3050000e+0005.2900000e+0005.2900000e+0005.2700000e+0005.2650000e+0005.2650000e+0005.2650000e+0005.2750000e+0005.2550000e+0005.2350000e+0005.2450000e+0005.2650000e+0005.2800000e+0005.2650000e+0005.2600000e+0005.2600000e+0005.2600000e+0005.2650000e+0005.2550000e+0005.2600000e+0005.2500000e+0005.2450000e+0005.2500000e+0005.2400000e+0005.2600000e+0005.2700000e+0005.2700000e+0005.2700000e+0005.2650000e+0005.2750000e+0005.2900000e+0005.2700000e+0005.2500000e+0005.2550000e+0005.2650000e+0005.2800000e+0005.2900000e+0005.2800000e+0005.2650000e+0005.2600000e+0005.2700000e+0005.2950000e+0005.2950000e+0005.2950000e+0005.2700000e+0005.2550000e+0005.2500000e+0005.2750000e+0005.2850000e+0005.3000000e+0005.2950000e+0005.2800000e+0005.2750000e+0005.2700000e+0005.2800000e+0005.2750000e+0005.2750000e+0005.2600000e+0005.2650000e+0005.2700000e+0005.2700000e+0005.2500000e+0005.2500000e+0005.2400000e+0005.2500000e+0005.2600000e+0005.2700000e+0005.2600000e+0005.2500000e+0005.2300000e+0005.2400000e+0005.2550000e+0005.2500000e+0005.2400000e+0005.2250000e+0005.2150000e+0005.2250000e+0005.2500000e+0005.2600000e+0005.2550000e+0005.2350000e+0005.2000000e+0005.1950000e+0005.2150000e+0005.2150000e+0005.2150000e+0005.2150000e+0005.2050000e+0005.2000000e+0005.1850000e+0005.2000000e+0005.2000000e+0005.2050000e+0005.1850000e+0005.1950000e+0005.1950000e+0005.2100000e+0005.2050000e+0005.2050000e+0005.1900000e+0005.1900000e+0005.2000000e+0005.2050000e+0005.1950000e+0005.1850000e+0005.1750000e+0005.1800000e+0005.1900000e+0005.1950000e+0005.2000000e+0005.1800000e+0005.1700000e+0005.1750000e+0005.1850000e+0005.1950000e+0005.2050000e+0005.1850000e+0005.1800000e+0005.1950000e+0005.1950000e+0005.2100000e+0005.1950000e+0005.1800000e+0005.1650000e+0005.1700000e+0005.1850000e+0005.1950000e+0005.1900000e+0005.1750000e+0005.1650000e+0005.1650000e+0005.1850000e+0005.1900000e+0005.1850000e+0005.1600000e+0005.1700000e+0005.1750000e+0005.1900000e+0005.1900000e+0005.1850000e+0005.1700000e+0005.1750000e+0005.1900000e+0005.1850000e+0005.1600000e+0005.1700000e+0005.1600000e+0005.1600000e+0005.1550000e+0005.1750000e+0005.1750000e+0005.1800000e+0005.1750000e+0005.1850000e+0005.1900000e+0005.1800000e+0005.1800000e+0005.2000000e+0005.1900000e+0005.1800000e+0005.1850000e+0005.1950000e+0005.2050000e+0005.2250000e+0005.2200000e+0005.2250000e+0005.2400000e+0005.2550000e+0005.2750000e+0005.2650000e+0005.2550000e+0005.2400000e+0005.2300000e+0005.2450000e+0005.2550000e+0005.2300000e+0005.2000000e+0005.1750000e+0005.1650000e+0005.1850000e+0005.2050000e+0005.1950000e+0005.1900000e+0005.1850000e+0005.1800000e+0005.1800000e+0005.1700000e+0005.1700000e+0005.1600000e+0005.1500000e+0005.1300000e+0005.1300000e+0005.1450000e+0005.1450000e+0005.1300000e+0005.1200000e+0005.1200000e+0005.1350000e+0005.1450000e+0005.1500000e+0005.1300000e+0005.1000000e+0005.1100000e+0005.1050000e+0005.1250000e+0005.1150000e+0005.1150000e+0005.1000000e+0005.1050000e+0005.1200000e+0005.1200000e+0005.1200000e+0005.1250000e+0005.1150000e+0005.1200000e+0005.1250000e+0005.1200000e+0005.1250000e+0005.1150000e+0005.1100000e+0005.1050000e+0005.1150000e+0005.1250000e+0005.1200000e+0005.1000000e+0005.0900000e+0005.1000000e+0005.1200000e+0005.1300000e+0005.1100000e+0005.0450000e+0004.9550000e+0004.8650000e+0004.7600000e+0004.6400000e+0004.4550000e+0004.2100000e+0003.9200000e+0003.6600000e+0003.5400000e+0003.5450000e+0003.6000000e+0003.6300000e+0003.6650000e+0003.6950000e+0003.7700000e+0003.8350000e+0003.8600000e+0003.8700000e+0003.8700000e+0003.9050000e+0003.9800000e+0004.0550000e+0004.1050000e+0004.1350000e+0004.1750000e+0004.2300000e+0004.2900000e+0004.3750000e+0004.4750000e+0004.5800000e+0004.6500000e+0004.7300000e+0004.8200000e+0004.9200000e+0004.9800000e+0005.0500000e+0005.0950000e+0005.1500000e+0005.2200000e+0005.2700000e+0005.3050000e+0005.3200000e+0005.3350000e+0005.3350000e+0005.3700000e+0005.3850000e+0005.3950000e+0005.3950000e+0005.4100000e+0005.4150000e+0005.4300000e+0005.4250000e+0005.4200000e+0005.4300000e+0005.4200000e+0005.4300000e+0005.4500000e+0005.4700000e+0005.4700000e+0005.4600000e+0005.4400000e+0005.4450000e+0005.4700000e+0005.4750000e+0005.4800000e+0005.4650000e+0005.4800000e+0005.4700000e+0005.4850000e+0005.4950000e+0005.4900000e+0005.5000000e+0005.4800000e+0005.4750000e+0005.4850000e+0005.4950000e+0005.4950000e+0005.4900000e+0005.4900000e+0005.4900000e+0005.4900000e+0005.5000000e+0005.4950000e+0005.5000000e+0005.4850000e+0005.5000000e+0005.5250000e+0005.5300000e+0005.5250000e+0005.5150000e+0005.5000000e+0005.5100000e+0005.5100000e+0005.5200000e+0005.5100000e+0005.4950000e+0005.5000000e+0005.4900000e+0005.5100000e+0005.5150000e+0005.4950000e+0005.4850000e+0005.4800000e+0005.4850000e+0005.5050000e+0005.5000000e+0005.4900000e+0005.4750000e+0005.4600000e+0005.4550000e+0005.4800000e+0005.4750000e+0005.4550000e+0005.4400000e+0005.4300000e+0005.4050000e+0005.4100000e+0005.4050000e+0005.3950000e+0005.3900000e+0005.3750000e+0005.3650000e+0005.3600000e+0005.3600000e+0005.3500000e+0005.3400000e+0005.3200000e+0005.2950000e+0005.2800000e+0005.2950000e+0005.2800000e+0005.2750000e+0005.2500000e+0005.2350000e+0005.2250000e+0005.2200000e+0005.2200000e+0005.2150000e+0005.1950000e+0005.1900000e+0005.2100000e+0005.2100000e+0005.1950000e+0005.1800000e+0005.1600000e+0005.1800000e+0005.1900000e+0005.1900000e+0005.1800000e+0005.1900000e+0005.1800000e+0005.1850000e+0005.1950000e+0005.1950000e+0005.1900000e+0005.1950000e+0005.1850000e+0005.1800000e+0005.1950000e+0005.2000000e+0005.2000000e+0005.1900000e+0005.1900000e+0005.1950000e+0005.2000000e+0005.2350000e+0005.2450000e+0005.2350000e+0005.2150000e+0005.2150000e+0005.2250000e+0005.2450000e+0005.2400000e+0005.2350000e+0005.2200000e+0005.2300000e+0005.2500000e+0005.2500000e+0005.2650000e+0005.2550000e+0005.2350000e+0005.2250000e+0005.2350000e+0005.2500000e+0005.2650000e+0005.2600000e+0005.2500000e+0005.2550000e+0005.2600000e+0005.2650000e+0005.2550000e+0005.2450000e+0005.2550000e+0005.2400000e+0005.2500000e+0005.2450000e+0005.2650000e+0005.2500000e+0005.2350000e+0005.2300000e+0005.2350000e+0005.2400000e+0005.2250000e+0005.2250000e+0005.2200000e+0005.2200000e+0005.2300000e+0005.2350000e+0005.2300000e+0005.2300000e+0005.2200000e+0005.2100000e+0005.2300000e+0005.2300000e+0005.2200000e+0005.2200000e+0005.2000000e+0005.1850000e+0005.2050000e+0005.2200000e+0005.2300000e+0005.2250000e+0005.2200000e+0005.2100000e+0005.1950000e+0005.2050000e+0005.2100000e+0005.2100000e+0005.2000000e+0005.1900000e+0005.2050000e+0005.2100000e+0005.2000000e+0005.1850000e+0005.1700000e+0005.1800000e+0005.1950000e+0005.2050000e+0005.1950000e+0005.1850000e+0005.1700000e+0005.1650000e+0005.1750000e+0005.2000000e+0005.1900000e+0005.1850000e+0005.1900000e+0005.1850000e+0005.1900000e+0005.1950000e+0005.1750000e+0005.1650000e+0005.1700000e+0005.1750000e+0005.1700000e+0005.1800000e+0005.1650000e+0005.1750000e+0005.1700000e+0005.1650000e+0005.1600000e+0005.1900000e+0005.1800000e+0005.1850000e+0005.1700000e+0005.1650000e+0005.1950000e+0005.2100000e+0005.1850000e+0005.1600000e+0005.1550000e+0005.1650000e+0005.1700000e+0005.1800000e+0005.1700000e+0005.1750000e+0005.1700000e+0005.1600000e+0005.1750000e+0005.2000000e+0005.2150000e+0005.2150000e+0005.2150000e+0005.2150000e+0005.2350000e+0005.2650000e+0005.2650000e+0005.2750000e+0005.2700000e+0005.2550000e+0005.2450000e+0005.2250000e+0005.2200000e+0005.2150000e+0005.2050000e+0005.1950000e+0005.1900000e+0005.2000000e+0005.1900000e+0005.2000000e+0005.1950000e+0005.2000000e+0005.2100000e+0005.2000000e+0005.1950000e+0005.1850000e+0005.1700000e+0005.1650000e+0005.1700000e+0005.1500000e+0005.1350000e+0005.1350000e+0005.1050000e+0005.1200000e+0005.1350000e+0005.1450000e+0005.1400000e+0005.1350000e+0005.1350000e+0005.1250000e+0005.1300000e+0005.1350000e+0005.1250000e+0005.1350000e+0005.1100000e+0005.1050000e+0005.1200000e+0005.1300000e+0005.1200000e+0005.1150000e+0005.1100000e+0005.1150000e+0005.1350000e+0005.1300000e+0005.1100000e+0005.0900000e+0005.0900000e+0005.0900000e+0005.1000000e+0005.1100000e+0005.1150000e+0005.1250000e+0005.1150000e+0005.1100000e+0005.0950000e+0005.1200000e+0005.1150000e+0005.0600000e+0005.0100000e+0004.9350000e+0004.8450000e+0004.7400000e+0004.6150000e+0004.4450000e+0004.2000000e+0003.9050000e+0003.6600000e+0003.5450000e+0003.5200000e+0003.5600000e+0003.6100000e+0003.6500000e+0003.7050000e+0003.7700000e+0003.8200000e+0003.8450000e+0003.8700000e+0003.8850000e+0003.9350000e+0004.0000000e+0004.0550000e+0004.1150000e+0004.1600000e+0004.2050000e+0004.2650000e+0004.3300000e+0004.4150000e+0004.5100000e+0004.5950000e+0004.6750000e+0004.7550000e+0004.8500000e+0004.9300000e+0004.9950000e+0005.0400000e+0005.1000000e+0005.1750000e+0005.2500000e+0005.2950000e+0005.3050000e+0005.3150000e+0005.3250000e+0005.3500000e+0005.3650000e+0005.3750000e+0005.3950000e+0005.3750000e+0005.3700000e+0005.3850000e+0005.4200000e+0005.4200000e+0005.4200000e+0005.4050000e+0005.4100000e+0005.4350000e+0005.4500000e+0005.4450000e+0005.4350000e+0005.4400000e+0005.4450000e+0005.4600000e+0005.4450000e+0005.4250000e+0005.4400000e+0005.4400000e+0005.4550000e+0005.4600000e+0005.4750000e+0005.4700000e+0005.4650000e+0005.4650000e+0005.4700000e+0005.4750000e+0005.4650000e+0005.4800000e+0005.4800000e+0005.4800000e+0005.4700000e+0005.4750000e+0005.4950000e+0005.4750000e+0005.4650000e+0005.4650000e+0005.4700000e+0005.4800000e+0005.4800000e+0005.4750000e+0005.4800000e+0005.4850000e+0005.4800000e+0005.4950000e+0005.5000000e+0005.4800000e+0005.4750000e+0005.4750000e+0005.4800000e+0005.4850000e+0005.4750000e+0005.4600000e+0005.4550000e+0005.4500000e+0005.4500000e+0005.4400000e+0005.4450000e+0005.4450000e+0005.4350000e+0005.4250000e+0005.4050000e+0005.4200000e+0005.4350000e+0005.4200000e+0005.4100000e+0005.3900000e+0005.3750000e+0005.3700000e+0005.3750000e+0005.3650000e+0005.3300000e+0005.3100000e+0005.2950000e+0005.3050000e+0005.3050000e+0005.2850000e+0005.2750000e+0005.2500000e+0005.2400000e+0005.2400000e+0005.2350000e+0005.2200000e+0005.2200000e+0005.2050000e+0005.2050000e+0005.2050000e+0005.2100000e+0005.2050000e+0005.1900000e+0005.1800000e+0005.1600000e+0005.1650000e+0005.1850000e+0005.1900000e+0005.1850000e+0005.1600000e+0005.1650000e+0005.1850000e+0005.1950000e+0005.1900000e+0005.1800000e+0005.1650000e+0005.1700000e+0005.1850000e+0005.1900000e+0005.2000000e+0005.1850000e+0005.1650000e+0005.1650000e+0005.1850000e+0005.2050000e+0005.2050000e+0005.2050000e+0005.1900000e+0005.2000000e+0005.2050000e+0005.2150000e+0005.2050000e+0005.2100000e+0005.2100000e+0005.2100000e+0005.2200000e+0005.2200000e+0005.2200000e+0005.2200000e+0005.2150000e+0005.2200000e+0005.2350000e+0005.2500000e+0005.2400000e+0005.2450000e+0005.2350000e+0005.2450000e+0005.2400000e+0005.2450000e+0005.2450000e+0005.2250000e+0005.2050000e+0005.2100000e+0005.2300000e+0005.2450000e+0005.2400000e+0005.2350000e+0005.2250000e+0005.2150000e+0005.2350000e+0005.2400000e+0005.2350000e+0005.2350000e+0005.2250000e+0005.2200000e+0005.2200000e+0005.2300000e+0005.2250000e+0005.2050000e+0005.2000000e+0005.2000000e+0005.2050000e+0005.2250000e+0005.2000000e+0005.1900000e+0005.1900000e+0005.1900000e+0005.1900000e+0005.2150000e+0005.1950000e+0005.2050000e+0005.2050000e+0005.1900000e+0005.1800000e+0005.1700000e+0005.1750000e+0005.1750000e+0005.1650000e+0005.1600000e+0005.1700000e+0005.1750000e+0005.1750000e+0005.1700000e+0005.1700000e+0005.1700000e+0005.1950000e+0005.1950000e+0005.1850000e+0005.1550000e+0005.1700000e+0005.1750000e+0005.1800000e+0005.1950000e+0005.1900000e+0005.1900000e+0005.1800000e+0005.1650000e+0005.1750000e+0005.1800000e+0005.1550000e+0005.1550000e+0005.1600000e+0005.1550000e+0005.1700000e+0005.1700000e+0005.1650000e+0005.1650000e+0005.1550000e+0005.1550000e+0005.1800000e+0005.1950000e+0005.1900000e+0005.1750000e+0005.1550000e+0005.1500000e+0005.1600000e+0005.1650000e+0005.1600000e+0005.1600000e+0005.1500000e+0005.1500000e+0005.1600000e+0005.1750000e+0005.1700000e+0005.1600000e+0005.1450000e+0005.1450000e+0005.1600000e+0005.1800000e+0005.1750000e+0005.1600000e+0005.1450000e+0005.1400000e+0005.1600000e+0005.1650000e+0005.1700000e+0005.1550000e+0005.1600000e+0005.1750000e+0005.1800000e+0005.2000000e+0005.2150000e+0005.2050000e+0005.2150000e+0005.2250000e+0005.2450000e+0005.2650000e+0005.2750000e+0005.2700000e+0005.2450000e+0005.2350000e+0005.2200000e+0005.2250000e+0005.2150000e+0005.2100000e+0005.1950000e+0005.1850000e+0005.1850000e+0005.1850000e+0005.1900000e+0005.1800000e+0005.1850000e+0005.1800000e+0005.1850000e+0005.1900000e+0005.1800000e+0005.1750000e+0005.1600000e+0005.1700000e+0005.1550000e+0005.1600000e+0005.1350000e+0005.1450000e+0005.1250000e+0005.1250000e+0005.1500000e+0005.1500000e+0005.1450000e+0005.1100000e+0005.1100000e+0005.1150000e+0005.1350000e+0005.1300000e+0005.1150000e+0005.1050000e+0005.1000000e+0005.1100000e+0005.1250000e+0005.1350000e+0005.1350000e+0005.1350000e+0005.1200000e+0005.1100000e+0005.1150000e+0005.1250000e+0005.1300000e+0005.1150000e+0005.1150000e+0005.1100000e+0005.1150000e+0005.1250000e+0005.1100000e+0005.1100000e+0005.0950000e+0005.1100000e+0005.1400000e+0005.1500000e+0005.1350000e+0005.1050000e+0005.0400000e+0004.9550000e+0004.8650000e+0004.7800000e+0004.6450000e+0004.4350000e+0004.1900000e+0003.9300000e+0003.7300000e+0003.6500000e+0003.6300000e+0003.6650000e+0003.7000000e+0003.7400000e+0003.7850000e+0003.8500000e+0003.8800000e+0003.9000000e+0003.9300000e+0003.9550000e+0004.0000000e+0004.0700000e+0004.1200000e+0004.1650000e+0004.2050000e+0004.2550000e+0004.3000000e+0004.3500000e+0004.3950000e+0004.4900000e+0004.5900000e+0004.6950000e+0004.7650000e+0004.8400000e+0004.9000000e+0004.9700000e+0005.0200000e+0005.0900000e+0005.1450000e+0005.2150000e+0005.2500000e+0005.3000000e+0005.3150000e+0005.3200000e+0005.3500000e+0005.3750000e+0005.3700000e+0005.3850000e+0005.3800000e+0005.3950000e+0005.4050000e+0005.4100000e+0005.4200000e+0005.4300000e+0005.4200000e+0005.4400000e+0005.4400000e+0005.4350000e+0005.4450000e+0005.4450000e+0005.4500000e+0005.4600000e+0005.4600000e+0005.4750000e+0005.4550000e+0005.4600000e+0005.4750000e+0005.4650000e+0005.4850000e+0005.4950000e+0005.4900000e+0005.4950000e+0005.4900000e+0005.4700000e+0005.5050000e+0005.5100000e+0005.5000000e+0005.5000000e+0005.4950000e+0005.4950000e+0005.5100000e+0005.5250000e+0005.5300000e+0005.5300000e+0005.5150000e+0005.5250000e+0005.5350000e+0005.5300000e+0005.5100000e+0005.5000000e+0005.4950000e+0005.5200000e+0005.5100000e+0005.5350000e+0005.5200000e+0005.5100000e+0005.4950000e+0005.5000000e+0005.5100000e+0005.5150000e+0005.5100000e+0005.5100000e+0005.4900000e+0005.4950000e+0005.5000000e+0005.5100000e+0005.4900000e+0005.4750000e+0005.4650000e+0005.4400000e+0005.4550000e+0005.4500000e+0005.4400000e+0005.4300000e+0005.4150000e+0005.4050000e+0005.4050000e+0005.3950000e+0005.3750000e+0005.3600000e+0005.3350000e+0005.3300000e+0005.3300000e+0005.3250000e+0005.3150000e+0005.2950000e+0005.2800000e+0005.2550000e+0005.2600000e+0005.2550000e+0005.2550000e+0005.2350000e+0005.2150000e+0005.2200000e+0005.2100000e+0005.2300000e+0005.2050000e+0005.2150000e+0005.2050000e+0005.2000000e+0005.2050000e+0005.2050000e+0005.2100000e+0005.1950000e+0005.1850000e+0005.1850000e+0005.2000000e+0005.2200000e+0005.2200000e+0005.2100000e+0005.1900000e+0005.1950000e+0005.2150000e+0005.2200000e+0005.2200000e+0005.2150000e+0005.2050000e+0005.2200000e+0005.2350000e+0005.2400000e+0005.2450000e+0005.2400000e+0005.2400000e+0005.2350000e+0005.2400000e+0005.2500000e+0005.2500000e+0005.2300000e+0005.2350000e+0005.2350000e+0005.2550000e+0005.2600000e+0005.2600000e+0005.2400000e+0005.2600000e+0005.2700000e+0005.2850000e+0005.3000000e+0005.2850000e+0005.2700000e+0005.2550000e+0005.2550000e+0005.2650000e+0005.2700000e+0005.2500000e+0005.2550000e+0005.2450000e+0005.2450000e+0005.2650000e+0005.2650000e+0005.2550000e+0005.2400000e+0005.2500000e+0005.2550000e+0005.2550000e+0005.2550000e+0005.2550000e+0005.2450000e+0005.2350000e+0005.2300000e+0005.2350000e+0005.2450000e+0005.2400000e+0005.2200000e+0005.2200000e+0005.2050000e+0005.2100000e+0005.2350000e+0005.2200000e+0005.2150000e+0005.2050000e+0005.2050000e+0005.2200000e+0005.2350000e+0005.2400000e+0005.2200000e+0005.2300000e+0005.2000000e+0005.2000000e+0005.2100000e+0005.2100000e+0005.2100000e+0005.2000000e+0005.1950000e+0005.2000000e+0005.2150000e+0005.2050000e+0005.2100000e+0005.2000000e+0005.1950000e+0005.2200000e+0005.2250000e+0005.2150000e+0005.2100000e+0005.2000000e+0005.2000000e+0005.2150000e+0005.2150000e+0005.2150000e+0005.2000000e+0005.1900000e+0005.1750000e+0005.2000000e+0005.2150000e+0005.2100000e+0005.1950000e+0005.1800000e+0005.1850000e+0005.1850000e+0005.2050000e+0005.2000000e+0005.2000000e+0005.1950000e+0005.1800000e+0005.1950000e+0005.2100000e+0005.2000000e+0005.1950000e+0005.1850000e+0005.1850000e+0005.1900000e+0005.2100000e+0005.2050000e+0005.1950000e+0005.2000000e+0005.2000000e+0005.2200000e+0005.2400000e+0005.2500000e+0005.2550000e+0005.2500000e+0005.2550000e+0005.2900000e+0005.2950000e+0005.2950000e+0005.2900000e+0005.2850000e+0005.2650000e+0005.2500000e+0005.2500000e+0005.2400000e+0005.2300000e+0005.2200000e+0005.2100000e+0005.2200000e+0005.2350000e+0005.2300000e+0005.2250000e+0005.2250000e+0005.2200000e+0005.2100000e+0005.2200000e+0005.2100000e+0005.2050000e+0005.2000000e+0005.1850000e+0005.1700000e+0005.1750000e+0005.1650000e+0005.1550000e+0005.1450000e+0005.1550000e+0005.1600000e+0005.1800000e+0005.1700000e+0005.1650000e+0005.1400000e+0005.1450000e+0005.1600000e+0005.1750000e+0005.1650000e+0005.1550000e+0005.1550000e+0005.1400000e+0005.1600000e+0005.1550000e+0005.1600000e+0005.1450000e+0005.1350000e+0005.1500000e+0005.1400000e+0005.1600000e+0005.1500000e+0005.1350000e+0005.1250000e+0005.1350000e+0005.1400000e+0005.1550000e+0005.1450000e+0005.1450000e+0005.1500000e+0005.1650000e+0005.1650000e+0005.1450000e+0005.0600000e+0004.9600000e+0004.8550000e+0004.6950000e+0004.5400000e+0004.3450000e+0004.0500000e+0003.7550000e+0003.5650000e+0003.5250000e+0003.5750000e+0003.6500000e+0003.7050000e+0003.7450000e+0003.7850000e+0003.8400000e+0003.8950000e+0003.9300000e+0003.9550000e+0003.9700000e+0004.0000000e+0004.0750000e+0004.1600000e+0004.2300000e+0004.2750000e+0004.3300000e+0004.4100000e+0004.5200000e+0004.6350000e+0004.7250000e+0004.8100000e+0004.8900000e+0004.9600000e+0005.0300000e+0005.1300000e+0005.1950000e+0005.2500000e+0005.3050000e+0005.3350000e+0005.3600000e+0005.3900000e+0005.4250000e+0005.4150000e+0005.4150000e+0005.4250000e+0005.4250000e+0005.4500000e+0005.4700000e+0005.4800000e+0005.4750000e+0005.4850000e+0005.4850000e+0005.4950000e+0005.5000000e+0005.4900000e+0005.5100000e+0005.5200000e+0005.5250000e+0005.5400000e+0005.5300000e+0005.5200000e+0005.5250000e+0005.5150000e+0005.5250000e+0005.5400000e+0005.5450000e+0005.5500000e+0005.5450000e+0005.5400000e+0005.5600000e+0005.5700000e+0005.5800000e+0005.5750000e+0005.5750000e+0005.5700000e+0005.5750000e+0005.5850000e+0005.6000000e+0005.5800000e+0005.5700000e+0005.5700000e+0005.5700000e+0005.5800000e+0005.5950000e+0005.6000000e+0005.5850000e+0005.5700000e+0005.5800000e+0005.5900000e+0005.5950000e+0005.5900000e+0005.5800000e+0005.5650000e+0005.5750000e+0005.5700000e+0005.5750000e+0005.5600000e+0005.5500000e+0005.5350000e+0005.5300000e+0005.5350000e+0005.5350000e+0005.5300000e+0005.5200000e+0005.4900000e+0005.4800000e+0005.4800000e+0005.4800000e+0005.4650000e+0005.4500000e+0005.4250000e+0005.4200000e+0005.4000000e+0005.3800000e+0005.3750000e+0005.3650000e+0005.3500000e+0005.3400000e+0005.3300000e+0005.3250000e+0005.3100000e+0005.2850000e+0005.2750000e+0005.2800000e+0005.2850000e+0005.2850000e+0005.2900000e+0005.2550000e+0005.2350000e+0005.2400000e+0005.2500000e+0005.2500000e+0005.2450000e+0005.2400000e+0005.2400000e+0005.2450000e+0005.2550000e+0005.2600000e+0005.2600000e+0005.2500000e+0005.2450000e+0005.2550000e+0005.2550000e+0005.2800000e+0005.2800000e+0005.2850000e+0005.2650000e+0005.2700000e+0005.2650000e+0005.2800000e+0005.2850000e+0005.2900000e+0005.2800000e+0005.2750000e+0005.2800000e+0005.2950000e+0005.3000000e+0005.2900000e+0005.2950000e+0005.2850000e+0005.3050000e+0005.3300000e+0005.3350000e+0005.3300000e+0005.3050000e+0005.2950000e+0005.2950000e+0005.3150000e+0005.3050000e+0005.3150000e+0005.3000000e+0005.2950000e+0005.2950000e+0005.3050000e+0005.3150000e+0005.3050000e+0005.3100000e+0005.3050000e+0005.2950000e+0005.3150000e+0005.3100000e+0005.3050000e+0005.2900000e+0005.2850000e+0005.2750000e+0005.2450000e+0005.2000000e+0005.1600000e+0005.1150000e+0005.0850000e+0005.0550000e+0005.0400000e+0005.0350000e+0005.0050000e+0004.9900000e+0005.0000000e+0005.0200000e+0005.0550000e+0005.0800000e+0005.1100000e+0005.1550000e+0005.2000000e+0005.2650000e+0005.2850000e+0005.3150000e+0005.3400000e+0005.3850000e+0005.4600000e+0005.5700000e+0005.6600000e+0005.7400000e+0005.8000000e+0005.8300000e+0005.8650000e+0005.9350000e+0005.9650000e+0005.9700000e+0005.9350000e+0005.8650000e+0005.7850000e+0005.7450000e+0005.6750000e+0005.6050000e+0005.5150000e+0005.4050000e+0005.3000000e+0005.2750000e+0005.2700000e+0005.2650000e+0005.2400000e+0005.2200000e+0005.2150000e+0005.2150000e+0005.2350000e+0005.2100000e+0005.2000000e+0005.1800000e+0005.1650000e+0005.1700000e+0005.1900000e+0005.1850000e+0005.1650000e+0005.1600000e+0005.1450000e+0005.1450000e+0005.1550000e+0005.1500000e+0005.1300000e+0005.1150000e+0005.1100000e+0005.1200000e+0005.1200000e+0005.1100000e+0005.1050000e+0005.1000000e+0005.1000000e+0005.1000000e+0005.1000000e+0005.0850000e+0005.0750000e+0005.0650000e+0005.0800000e+0005.0900000e+0005.0750000e+0005.0800000e+0005.0900000e+0005.0800000e+0005.0700000e+0005.0800000e+0005.0900000e+0005.0900000e+0005.0800000e+0005.0600000e+0005.0750000e+0005.0750000e+0005.0550000e+0005.0350000e+0005.0100000e+0004.9900000e+0004.9750000e+0004.9550000e+0004.9500000e+0004.9250000e+0004.9000000e+0004.8800000e+0004.8900000e+0004.8850000e+0004.8950000e+0004.8700000e+0004.8500000e+0004.8200000e+0004.8100000e+0004.8250000e+0004.8150000e+0004.8050000e+0004.7800000e+0004.7700000e+0004.7650000e+0004.7750000e+0004.7900000e+0004.7750000e+0004.7900000e+0004.7700000e+0004.7900000e+0004.7900000e+0004.7850000e+0004.8150000e+0004.8200000e+0004.8150000e+0004.8500000e+0004.8600000e+0004.8800000e+0004.8950000e+0004.9050000e+0004.9150000e+0004.9550000e+0004.9850000e+0005.0150000e+0005.0250000e+0005.0400000e+0005.0500000e+0005.0700000e+0005.0900000e+0005.1050000e+0005.1250000e+0005.1200000e+0005.1300000e+0005.1600000e+0005.1800000e+0005.1900000e+0005.2100000e+0005.2200000e+0005.2100000e+0005.2200000e+0005.2300000e+0005.2400000e+0005.2500000e+0005.2550000e+0005.2550000e+0005.2650000e+0005.2650000e+0005.2500000e+0005.2600000e+0005.2350000e+0005.2450000e+0005.2450000e+0005.2750000e+0005.2700000e+0005.2850000e+0005.2600000e+0005.2650000e+0005.2800000e+0005.2750000e+0005.2900000e+0005.2950000e+0005.2900000e+0005.2800000e+0005.2700000e+0005.2850000e+0005.2800000e+0005.2900000e+0005.2850000e+0005.2700000e+0005.2700000e+0005.2850000e+0005.2950000e+0005.3000000e+0005.2950000e+0005.2650000e+0005.2850000e+0005.2900000e+0005.3000000e+0005.3000000e+0005.3000000e+0005.2950000e+0005.2850000e+0005.2900000e+0005.2950000e+0005.3000000e+0005.2850000e+0005.2600000e+0005.2650000e+0005.2650000e+0005.2800000e+0005.2850000e+0005.2850000e+0005.2800000e+0005.2750000e+0005.2700000e+0005.2950000e+0005.2900000e+0005.2900000e+0005.2800000e+0005.2850000e+0005.3050000e+0005.3000000e+0005.2850000e+0005.2950000e+0005.2750000e+0005.2850000e+0005.2950000e+0005.2850000e+0005.2850000e+0005.2800000e+0005.2750000e+0005.2750000e+0005.2800000e+0005.2800000e+0005.2900000e+0005.2750000e+0005.2700000e+0005.2700000e+0005.2650000e+0005.2750000e+0005.2900000e+0005.2900000e+0005.2800000e+0005.2800000e+0005.2800000e+0005.2950000e+0005.2850000e+0005.2750000e+0005.2500000e+0005.2600000e+0005.2650000e+0005.2700000e+0005.2750000e+0005.2700000e+0005.2600000e+0005.2600000e+0005.2750000e+0005.2700000e+0005.2850000e+0005.2750000e+0005.2750000e+0005.2750000e+0005.2700000e+0005.2750000e+0005.2650000e+0005.2550000e+0005.2600000e+0005.2600000e+0005.2750000e+0005.2700000e+0005.2800000e+0005.2800000e+0005.2700000e+0005.2650000e+0005.2850000e+0005.2900000e+0005.2800000e+0005.2700000e+0005.2700000e+0005.2800000e+0005.2950000e+0005.3000000e+0005.2950000e+0005.2950000e+0005.2750000e+0005.2850000e+0005.3000000e+0005.3050000e+0005.2900000e+0005.2700000e+0005.2650000e+0005.2700000e+0005.2750000e+0005.2900000e+0005.2900000e+0005.2850000e+0005.2850000e+0005.2800000e+0005.2800000e+0005.2850000e+0005.2950000e+0005.2850000e+0005.2800000e+0005.2700000e+0005.2900000e+0005.2950000e+0005.2900000e+0005.2850000e+0005.2750000e+0005.2850000e+0005.2900000e+0005.2900000e+0005.2850000e+0005.2800000e+0005.2700000e+0005.2900000e+0005.2850000e+0005.3100000e+0005.2950000e+0005.2650000e+0005.2750000e+0005.2850000e+0005.3000000e+0005.3000000e+0005.2950000e+0005.2900000e+0005.2850000e+0005.2800000e+0005.2950000e+0005.3000000e+0005.3000000e+0005.2850000e+0005.2800000e+0005.2750000e+0005.2850000e+0005.3000000e+0005.3000000e+0005.3000000e+0005.2750000e+0005.2900000e+0005.2850000e+0005.3000000e+0005.3000000e+0005.2950000e+0005.2900000e+0005.2950000e+0005.2950000e+0005.3000000e+0005.3000000e+0005.2900000e+0005.2700000e+0005.2850000e+0005.2850000e+0005.2700000e+0005.2750000e+0005.2600000e+0005.2550000e+0005.2600000e+0005.2800000e+0005.2800000e+0005.2700000e+0005.2700000e+0005.2550000e+0005.2700000e+0005.2800000e+0005.2850000e+0005.2800000e+0005.2650000e+0005.2500000e+0005.2550000e+0005.2650000e+0005.2650000e+0005.2550000e+0005.2600000e+0005.2550000e+0005.2650000e+0005.2650000e+0005.2500000e+0005.2650000e+0005.2550000e+0005.2550000e+0005.2550000e+0005.2650000e+0005.2750000e+0005.2900000e+0005.2600000e+0005.2700000e+0005.2650000e+0005.2700000e+0005.2600000e+0005.2450000e+0005.2500000e+0005.2350000e+0005.2450000e+0005.2500000e+0005.2550000e+0005.2500000e+0005.2450000e+0005.2500000e+0005.2550000e+0005.2650000e+0005.2700000e+0005.2650000e+0005.2650000e+0005.2350000e+0005.2400000e+0005.2750000e+0005.2600000e+0005.2600000e+0005.2450000e+0005.2250000e+0005.2400000e+0005.2400000e+0005.2550000e+0005.2550000e+0005.2450000e+0005.2450000e+0005.2450000e+0005.2700000e+0005.2650000e+0005.2450000e+0005.2250000e+0005.2250000e+0005.2350000e+0005.2600000e+0005.2550000e+0005.2350000e+0005.2400000e+0005.2300000e+0005.2300000e+0005.2450000e+0005.2500000e+0005.2500000e+0005.2500000e+0005.2200000e+0005.2250000e+0005.2300000e+0005.2600000e+0005.2700000e+0005.2750000e+0005.2600000e+0005.2750000e+0005.3000000e+0005.3250000e+0005.3350000e+0005.3300000e+0005.3250000e+0005.3200000e+0005.3150000e+0005.3100000e+0005.3050000e+0005.2750000e+0005.2350000e+0005.2350000e+0005.2300000e+0005.2500000e+0005.2500000e+0005.2400000e+0005.2450000e+0005.2600000e+0005.2750000e+0005.2650000e+0005.2650000e+0005.2500000e+0005.2350000e+0005.2350000e+0005.2500000e+0005.2250000e+0005.2100000e+0005.1950000e+0005.1850000e+0005.1750000e+0005.1850000e+0005.1850000e+0005.1750000e+0005.1650000e+0005.1650000e+0005.1600000e+0005.1600000e+0005.1800000e+0005.1800000e+0005.1900000e+0005.1800000e+0005.1700000e+0005.1550000e+0005.1550000e+0005.1450000e+0005.1400000e+0005.1400000e+0005.1500000e+0005.1550000e+0005.1600000e+0005.1550000e+0005.1500000e+0005.1250000e+0005.1350000e+0005.1500000e+0005.1700000e+0005.1800000e+0005.1650000e+0005.1350000e+0005.0950000e+0005.0350000e+0004.9600000e+0004.8500000e+0004.7300000e+0004.5450000e+0004.3150000e+0004.0400000e+0003.8050000e+0003.6550000e+0003.6350000e+0003.6550000e+0003.7200000e+0003.7700000e+0003.8250000e+0003.8750000e+0003.9050000e+0003.9200000e+0003.9400000e+0003.9750000e+0004.0300000e+0004.0800000e+0004.1150000e+0004.1550000e+0004.1950000e+0004.2650000e+0004.3050000e+0004.3600000e+0004.4050000e+0004.4550000e+0004.5550000e+0004.6550000e+0004.7350000e+0004.7950000e+0004.8700000e+0004.9250000e+0005.0050000e+0005.0700000e+0005.1450000e+0005.1900000e+0005.2300000e+0005.2850000e+0005.3350000e+0005.3750000e+0005.4050000e+0005.4200000e+0005.4250000e+0005.4300000e+0005.4400000e+0005.4550000e+0005.4700000e+0005.4700000e+0005.4650000e+0005.4650000e+0005.4850000e+0005.4900000e+0005.5150000e+0005.5050000e+0005.5200000e+0005.5100000e+0005.5250000e+0005.5250000e+0005.5300000e+0005.5400000e+0005.5150000e+0005.5250000e+0005.5350000e+0005.5450000e+0005.5400000e+0005.5400000e+0005.5350000e+0005.5300000e+0005.5400000e+0005.5450000e+0005.5500000e+0005.5450000e+0005.5350000e+0005.5300000e+0005.5250000e+0005.5600000e+0005.5650000e+0005.5500000e+0005.5400000e+0005.5400000e+0005.5550000e+0005.5650000e+0005.5750000e+0005.5650000e+0005.5350000e+0005.5200000e+0005.5500000e+0005.5450000e+0005.5600000e+0005.5600000e+0005.5450000e+0005.5450000e+0005.5400000e+0005.5600000e+0005.5500000e+0005.5450000e+0005.5250000e+0005.5250000e+0005.5300000e+0005.5450000e+0005.5450000e+0005.5400000e+0005.5350000e+0005.5150000e+0005.5250000e+0005.5350000e+0005.5350000e+0005.5250000e+0005.5150000e+0005.5000000e+0005.5000000e+0005.4900000e+0005.5050000e+0005.4900000e+0005.4950000e+0005.4700000e+0005.4750000e+0005.4800000e+0005.4650000e+0005.4650000e+0005.4400000e+0005.4350000e+0005.4400000e+0005.4450000e+0005.4300000e+0005.4150000e+0005.4150000e+0005.3850000e+0005.3850000e+0005.3850000e+0005.3750000e+0005.3700000e+0005.3350000e+0005.3250000e+0005.3250000e+0005.3150000e+0005.3250000e+0005.3100000e+0005.2900000e+0005.2750000e+0005.2850000e+0005.2850000e+0005.3000000e+0005.2800000e+0005.2600000e+0005.2550000e+0005.2400000e+0005.2500000e+0005.2550000e+0005.2500000e+0005.2350000e+0005.2300000e+0005.2350000e+0005.2400000e+0005.2450000e+0005.2400000e+0005.2350000e+0005.2350000e+0005.2550000e+0005.2550000e+0005.2650000e+0005.2550000e+0005.2600000e+0005.2550000e+0005.2750000e+0005.2750000e+0005.2800000e+0005.2750000e+0005.2750000e+0005.2750000e+0005.2800000e+0005.2900000e+0005.3150000e+0005.3100000e+0005.3000000e+0005.2850000e+0005.3000000e+0005.3100000e+0005.3300000e+0005.3300000e+0005.3300000e+0005.3200000e+0005.3250000e+0005.3400000e+0005.3550000e+0005.3450000e+0005.3450000e+0005.3400000e+0005.3400000e+0005.3400000e+0005.3550000e+0005.3550000e+0005.3350000e+0005.3250000e+0005.3450000e+0005.3550000e+0005.3550000e+0005.3600000e+0005.3450000e+0005.3350000e+0005.3450000e+0005.3450000e+0005.3600000e+0005.3450000e+0005.3400000e+0005.3350000e+0005.3300000e+0005.3400000e+0005.3450000e+0005.3350000e+0005.3300000e+0005.2950000e+0005.3050000e+0005.3150000e+0005.3200000e+0005.3150000e+0005.3000000e+0005.2950000e+0005.2900000e+0005.3000000e+0005.2950000e+0005.2850000e+0005.2850000e+0005.2900000e+0005.2900000e+0005.2900000e+0005.2900000e+0005.2800000e+0005.2800000e+0005.2600000e+0005.2750000e+0005.2900000e+0005.2800000e+0005.2800000e+0005.2700000e+0005.2650000e+0005.2700000e+0005.2750000e+0005.2800000e+0005.2800000e+0005.2600000e+0005.2450000e+0005.2550000e+0005.2650000e+0005.2800000e+0005.2800000e+0005.2650000e+0005.2800000e+0005.2750000e+0005.2850000e+0005.2650000e+0005.2700000e+0005.2500000e+0005.2550000e+0005.2600000e+0005.2650000e+0005.2700000e+0005.2850000e+0005.2600000e+0005.2450000e+0005.2500000e+0005.2600000e+0005.2600000e+0005.2600000e+0005.2450000e+0005.2300000e+0005.2400000e+0005.2550000e+0005.2700000e+0005.2650000e+0005.2350000e+0005.2350000e+0005.2250000e+0005.2400000e+0005.2400000e+0005.2450000e+0005.2350000e+0005.2250000e+0005.2200000e+0005.2400000e+0005.2350000e+0005.2350000e+0005.2350000e+0005.2350000e+0005.2300000e+0005.2450000e+0005.2500000e+0005.2400000e+0005.2300000e+0005.2250000e+0005.2350000e+0005.2550000e+0005.2500000e+0005.2600000e+0005.2600000e+0005.2600000e+0005.2800000e+0005.3000000e+0005.3200000e+0005.3300000e+0005.3200000e+0005.3050000e+0005.3150000e+0005.3100000e+0005.3000000e+0005.2950000e+0005.2750000e+0005.2650000e+0005.2600000e+0005.2550000e+0005.2500000e+0005.2350000e+0005.2300000e+0005.2250000e+0005.2500000e+0005.2500000e+0005.2550000e+0005.2550000e+0005.2400000e+0005.2300000e+0005.2350000e+0005.2400000e+0005.2450000e+0005.2300000e+0005.2150000e+0005.1950000e+0005.1900000e+0005.2000000e+0005.2100000e+0005.2000000e+0005.1900000e+0005.1850000e+0005.1900000e+0005.2050000e+0005.2000000e+0005.1850000e+0005.1850000e+0005.1700000e+0005.1800000e+0005.1850000e+0005.2050000e+0005.1900000e+0005.1750000e+0005.1700000e+0005.1850000e+0005.1800000e+0005.1950000e+0005.1950000e+0005.1850000e+0005.1600000e+0005.1750000e+0005.1850000e+0005.1900000e+0005.1800000e+0005.1600000e+0005.1550000e+0005.1550000e+0005.1700000e+0005.1800000e+0005.1750000e+0005.1750000e+0005.1650000e+0005.1600000e+0005.1550000e+0005.0950000e+0005.0150000e+0004.9150000e+0004.7950000e+0004.6750000e+0004.5050000e+0004.2850000e+0003.9950000e+0003.7150000e+0003.5600000e+0003.5350000e+0003.5850000e+0003.6350000e+0003.6700000e+0003.7100000e+0003.7500000e+0003.8000000e+0003.8500000e+0003.8700000e+0003.8900000e+0003.9050000e+0003.9350000e+0003.9950000e+0004.0450000e+0004.1150000e+0004.1600000e+0004.2000000e+0004.2400000e+0004.3050000e+0004.3800000e+0004.4750000e+0004.5800000e+0004.6650000e+0004.7400000e+0004.8250000e+0004.9050000e+0005.0000000e+0005.0600000e+0005.1150000e+0005.1650000e+0005.2200000e+0005.3000000e+0005.3450000e+0005.3900000e+0005.3850000e+0005.4000000e+0005.4150000e+0005.4450000e+0005.4550000e+0005.4650000e+0005.4650000e+0005.4650000e+0005.4700000e+0005.4850000e+0005.4950000e+0005.4900000e+0005.4850000e+0005.4900000e+0005.4950000e+0005.5150000e+0005.5200000e+0005.5300000e+0005.5100000e+0005.5200000e+0005.5300000e+0005.5450000e+0005.5450000e+0005.5550000e+0005.5400000e+0005.5450000e+0005.5550000e+0005.5600000e+0005.5600000e+0005.5500000e+0005.5450000e+0005.5400000e+0005.5450000e+0005.5600000e+0005.5700000e+0005.5700000e+0005.5500000e+0005.5450000e+0005.5600000e+0005.5700000e+0005.5700000e+0005.5850000e+0005.5800000e+0005.5600000e+0005.5800000e+0005.5800000e+0005.6000000e+0005.5950000e+0005.5850000e+0005.5750000e+0005.5850000e+0005.5900000e+0005.5900000e+0005.5850000e+0005.5850000e+0005.5750000e+0005.5900000e+0005.5800000e+0005.5850000e+0005.5850000e+0005.5800000e+0005.5650000e+0005.5700000e+0005.5700000e+0005.5800000e+0005.5750000e+0005.5750000e+0005.5600000e+0005.5700000e+0005.5700000e+0005.5800000e+0005.5700000e+0005.5500000e+0005.5250000e+0005.5250000e+0005.5300000e+0005.5300000e+0005.5150000e+0005.4950000e+0005.4800000e+0005.4800000e+0005.4950000e+0005.4950000e+0005.4650000e+0005.4500000e+0005.4350000e+0005.4300000e+0005.4300000e+0005.4300000e+0005.4200000e+0005.3900000e+0005.3700000e+0005.3650000e+0005.3550000e+0005.3600000e+0005.3400000e+0005.3150000e+0005.2850000e+0005.2900000e+0005.3050000e+0005.2950000e+0005.2900000e+0005.2700000e+0005.2600000e+0005.2700000e+0005.2850000e+0005.2800000e+0005.2750000e+0005.2650000e+0005.2550000e+0005.2550000e+0005.2850000e+0005.2700000e+0005.2800000e+0005.2600000e+0005.2550000e+0005.2650000e+0005.2600000e+0005.2700000e+0005.2750000e+0005.2600000e+0005.2650000e+0005.2700000e+0005.2800000e+0005.3000000e+0005.2850000e+0005.2900000e+0005.2850000e+0005.2950000e+0005.3000000e+0005.3150000e+0005.3050000e+0005.3000000e+0005.3050000e+0005.3100000e+0005.3200000e+0005.3250000e+0005.3200000e+0005.3150000e+0005.3100000e+0005.3150000e+0005.3350000e+0005.3450000e+0005.3400000e+0005.3200000e+0005.3150000e+0005.3350000e+0005.3450000e+0005.3500000e+0005.3400000e+0005.3300000e+0005.3250000e+0005.3400000e+0005.3450000e+0005.3500000e+0005.3400000e+0005.3250000e+0005.3250000e+0005.3200000e+0005.3200000e+0005.3400000e+0005.3300000e+0005.3300000e+0005.3150000e+0005.3250000e+0005.3250000e+0005.3200000e+0005.3300000e+0005.3150000e+0005.3150000e+0005.3100000e+0005.3200000e+0005.3200000e+0005.3050000e+0005.3000000e+0005.2900000e+0005.2900000e+0005.2950000e+0005.3050000e+0005.2950000e+0005.2800000e+0005.2700000e+0005.2750000e+0005.2850000e+0005.2850000e+0005.2950000e+0005.2850000e+0005.2700000e+0005.2850000e+0005.3000000e+0005.2900000e+0005.2950000e+0005.2750000e+0005.2650000e+0005.2600000e+0005.2650000e+0005.2650000e+0005.2600000e+0005.2650000e+0005.2550000e+0005.2650000e+0005.2750000e+0005.2950000e+0005.2800000e+0005.2650000e+0005.2700000e+0005.2700000e+0005.2850000e+0005.2800000e+0005.2850000e+0005.2650000e+0005.2600000e+0005.2550000e+0005.2700000e+0005.2850000e+0005.2750000e+0005.2550000e+0005.2500000e+0005.2550000e+0005.2750000e+0005.2700000e+0005.2550000e+0005.2550000e+0005.2450000e+0005.2500000e+0005.2650000e+0005.2600000e+0005.2650000e+0005.2550000e+0005.2550000e+0005.2550000e+0005.2750000e+0005.2700000e+0005.2550000e+0005.2450000e+0005.2400000e+0005.2600000e+0005.2650000e+0005.2700000e+0005.2650000e+0005.2500000e+0005.2350000e+0005.2550000e+0005.2500000e+0005.2650000e+0005.2550000e+0005.2600000e+0005.2450000e+0005.2600000e+0005.2650000e+0005.2750000e+0005.2650000e+0005.2450000e+0005.2500000e+0005.2650000e+0005.2600000e+0005.2650000e+0005.2650000e+0005.2500000e+0005.2400000e+0005.2450000e+0005.2600000e+0005.2700000e+0005.2600000e+0005.2550000e+0005.2800000e+0005.2950000e+0005.3100000e+0005.3250000e+0005.3400000e+0005.3350000e+0005.3300000e+0005.3400000e+0005.3450000e+0005.3500000e+0005.3400000e+0005.3150000e+0005.2900000e+0005.2950000e+0005.2900000e+0005.2650000e+0005.2750000e+0005.2600000e+0005.2500000e+0005.2600000e+0005.2750000e+0005.2800000e+0005.2850000e+0005.2700000e+0005.2500000e+0005.2500000e+0005.2600000e+0005.2450000e+0005.2500000e+0005.2450000e+0005.2100000e+0005.2050000e+0005.2150000e+0005.2150000e+0005.2100000e+0005.1900000e+0005.1800000e+0005.1900000e+0005.2050000e+0005.2000000e+0005.1950000e+0005.1900000e+0005.1900000e+0005.2050000e+0005.2100000e+0005.2250000e+0005.2150000e+0005.1900000e+0005.1750000e+0005.1900000e+0005.1900000e+0005.1950000e+0005.1950000e+0005.1750000e+0005.1750000e+0005.1850000e+0005.1900000e+0005.1900000e+0005.1800000e+0005.1700000e+0005.1650000e+0005.1750000e+0005.1800000e+0005.1750000e+0005.1850000e+0005.1650000e+0005.1750000e+0005.1850000e+0005.1900000e+0005.1700000e+0005.1300000e+0005.0650000e+0004.9600000e+0004.8550000e+0004.7250000e+0004.5700000e+0004.3550000e+0004.0900000e+0003.7950000e+0003.5700000e+0003.4750000e+0003.4950000e+0003.5600000e+0003.6050000e+0003.6350000e+0003.6850000e+0003.7450000e+0003.8100000e+0003.8300000e+0003.8450000e+0003.8600000e+0003.9000000e+0003.9600000e+0004.0150000e+0004.0750000e+0004.1200000e+0004.1800000e+0004.2450000e+0004.3100000e+0004.3700000e+0004.4700000e+0004.5550000e+0004.6500000e+0004.7500000e+0004.8600000e+0004.9550000e+0005.0150000e+0005.0750000e+0005.1150000e+0005.2000000e+0005.2650000e+0005.3200000e+0005.3450000e+0005.3700000e+0005.3950000e+0005.4200000e+0005.4350000e+0005.4500000e+0005.4500000e+0005.4650000e+0005.4650000e+0005.4850000e+0005.4950000e+0005.5050000e+0005.5000000e+0005.5200000e+0005.5100000e+0005.5250000e+0005.5300000e+0005.5400000e+0005.5450000e+0005.5300000e+0005.5300000e+0005.5400000e+0005.5450000e+0005.5550000e+0005.5550000e+0005.5450000e+0005.5450000e+0005.5700000e+0005.5750000e+0005.5800000e+0005.5850000e+0005.5750000e+0005.5700000e+0005.5750000e+0005.5750000e+0005.5950000e+0005.5950000e+0005.5850000e+0005.5750000e+0005.5800000e+0005.5950000e+0005.5950000e+0005.6000000e+0005.5800000e+0005.5900000e+0005.5950000e+0005.6000000e+0005.6050000e+0005.5950000e+0005.5950000e+0005.5850000e+0005.5950000e+0005.6050000e+0005.6050000e+0005.6100000e+0005.5950000e+0005.5850000e+0005.5900000e+0005.5900000e+0005.5850000e+0005.5850000e+0005.5750000e+0005.5750000e+0005.5750000e+0005.5750000e+0005.5700000e+0005.5650000e+0005.5600000e+0005.5450000e+0005.5500000e+0005.5550000e+0005.5500000e+0005.5400000e+0005.5200000e+0005.4950000e+0005.4750000e+0005.4800000e+0005.4750000e+0005.4450000e+0005.4250000e+0005.4250000e+0005.4050000e+0005.4050000e+0005.3950000e+0005.3750000e+0005.3500000e+0005.3350000e+0005.3450000e+0005.3550000e+0005.3350000e+0005.3350000e+0005.3100000e+0005.3000000e+0005.3000000e+0005.3100000e+0005.2950000e+0005.2850000e+0005.2850000e+0005.2700000e+0005.2800000e+0005.2800000e+0005.2800000e+0005.2750000e+0005.2800000e+0005.2600000e+0005.2850000e+0005.2950000e+0005.3050000e+0005.2950000e+0005.2950000e+0005.2750000e+0005.2800000e+0005.3050000e+0005.2950000e+0005.2900000e+0005.2900000e+0005.2750000e+0005.2900000e+0005.3050000e+0005.3200000e+0005.3100000e+0005.3050000e+0005.3000000e+0005.3200000e+0005.3200000e+0005.3300000e+0005.3300000e+0005.3150000e+0005.3150000e+0005.3300000e+0005.3450000e+0005.3500000e+0005.3350000e+0005.3400000e+0005.3250000e+0005.3350000e+0005.3450000e+0005.3400000e+0005.3400000e+0005.3350000e+0005.3250000e+0005.3250000e+0005.3350000e+0005.3400000e+0005.3450000e+0005.3300000e+0005.3350000e+0005.3250000e+0005.3450000e+0005.3500000e+0005.3350000e+0005.3100000e+0005.3050000e+0005.3100000e+0005.3250000e+0005.3150000e+0005.3100000e+0005.2950000e+0005.3000000e+0005.3000000e+0005.3050000e+0005.3150000e+0005.3100000e+0005.3000000e+0005.2900000e+0005.2950000e+0005.3050000e+0005.3050000e+0005.3050000e+0005.2900000e+0005.2800000e+0005.2850000e+0005.3000000e+0005.3050000e+0005.2900000e+0005.2850000e+0005.2650000e+0005.2800000e+0005.2950000e+0005.2950000e+0005.2850000e+0005.2850000e+0005.2850000e+0005.2850000e+0005.2950000e+0005.2950000e+0005.2800000e+0005.2800000e+0005.2650000e+0005.2750000e+0005.2800000e+0005.2850000e+0005.2750000e+0005.2800000e+0005.2600000e+0005.2650000e+0005.2800000e+0005.2850000e+0005.2850000e+0005.2800000e+0005.2650000e+0005.2800000e+0005.2950000e+0005.3050000e+0005.2900000e+0005.2800000e+0005.2850000e+0005.2800000e+0005.2750000e+0005.2900000e+0005.2850000e+0005.2900000e+0005.2700000e+0005.2750000e+0005.2850000e+0005.2750000e+0005.2800000e+0005.2650000e+0005.2650000e+0005.2700000e+0005.2900000e+0005.2900000e+0005.2900000e+0005.2850000e+0005.2800000e+0005.2850000e+0005.2900000e+0005.2850000e+0005.2850000e+0005.2750000e+0005.2650000e+0005.2700000e+0005.2750000e+0005.2800000e+0005.2700000e+0005.2600000e+0005.2650000e+0005.2600000e+0005.2700000e+0005.2700000e+0005.2700000e+0005.2650000e+0005.2600000e+0005.2650000e+0005.2750000e+0005.2700000e+0005.2650000e+0005.2550000e+0005.2450000e+0005.2550000e+0005.2600000e+0005.2600000e+0005.2650000e+0005.2700000e+0005.2550000e+0005.2550000e+0005.2550000e+0005.2650000e+0005.2650000e+0005.2600000e+0005.2750000e+0005.2800000e+0005.3100000e+0005.3200000e+0005.3250000e+0005.3300000e+0005.3200000e+0005.3250000e+0005.3500000e+0005.3550000e+0005.3500000e+0005.3400000e+0005.3050000e+0005.2850000e+0005.2950000e+0005.2950000e+0005.2850000e+0005.2800000e+0005.2750000e+0005.2750000e+0005.2850000e+0005.2900000e+0005.2900000e+0005.2800000e+0005.2550000e+0005.2600000e+0005.2550000e+0005.2650000e+0005.2600000e+0005.2350000e+0005.2100000e+0005.2150000e+0005.2250000e+0005.2250000e+0005.2200000e+0005.2050000e+0005.2150000e+0005.2050000e+0005.2200000e+0005.2250000e+0005.2300000e+0005.2100000e+0005.2000000e+0005.2050000e+0005.1950000e+0005.2150000e+0005.1950000e+0005.2050000e+0005.1950000e+0005.2050000e+0005.2050000e+0005.2050000e+0005.2050000e+0005.1800000e+0005.1950000e+0005.2050000e+0005.2100000e+0005.2100000e+0005.1950000e+0005.1950000e+0005.1850000e+0005.1950000e+0005.2000000e+0005.2150000e+0005.2100000e+0005.1900000e+0005.1350000e+0005.0650000e+0004.9850000e+0004.8650000e+0004.7150000e+0004.5150000e+0004.2500000e+0003.9550000e+0003.7250000e+0003.6150000e+0003.6200000e+0003.6600000e+0003.7050000e+0003.7550000e+0003.8000000e+0003.8750000e+0003.9200000e+0003.9350000e+0003.9600000e+0003.9950000e+0004.0650000e+0004.1100000e+0004.1650000e+0004.2250000e+0004.2750000e+0004.3400000e+0004.4100000e+0004.5100000e+0004.6100000e+0004.7050000e+0004.7900000e+0004.8750000e+0004.9550000e+0005.0450000e+0005.1050000e+0005.1600000e+0005.1950000e+0005.2750000e+0005.3350000e+0005.3850000e+0005.4000000e+0005.4200000e+0005.4300000e+0005.4500000e+0005.4600000e+0005.4700000e+0005.4750000e+0005.4750000e+0005.4750000e+0005.4950000e+0005.5000000e+0005.5300000e+0005.5300000e+0005.5250000e+0005.5150000e+0005.5200000e+0005.5400000e+0005.5400000e+0005.5400000e+0005.5400000e+0005.5250000e+0005.5400000e+0005.5550000e+0005.5550000e+0005.5500000e+0005.5400000e+0005.5450000e+0005.5500000e+0005.5750000e+0005.5700000e+0005.5650000e+0005.5500000e+0005.5500000e+0005.5750000e+0005.5700000e+0005.5750000e+0005.5650000e+0005.5650000e+0005.5600000e+0005.5650000e+0005.5700000e+0005.5650000e+0005.5750000e+0005.5700000e+0005.5650000e+0005.5650000e+0005.5750000e+0005.5800000e+0005.5850000e+0005.5750000e+0005.5600000e+0005.5750000e+0005.5900000e+0005.5900000e+0005.5750000e+0005.5600000e+0005.5600000e+0005.5750000e+0005.5650000e+0005.5650000e+0005.5500000e+0005.5400000e+0005.5300000e+0005.5350000e+0005.5450000e+0005.5450000e+0005.5450000e+0005.5300000e+0005.5150000e+0005.5200000e+0005.5300000e+0005.5150000e+0005.5050000e+0005.4950000e+0005.4900000e+0005.4750000e+0005.4800000e+0005.4700000e+0005.4550000e+0005.4400000e+0005.4200000e+0005.4150000e+0005.4150000e+0005.4150000e+0005.3900000e+0005.3800000e+0005.3500000e+0005.3550000e+0005.3500000e+0005.3650000e+0005.3450000e+0005.3300000e+0005.3150000e+0005.3000000e+0005.3200000e+0005.3200000e+0005.2900000e+0005.2750000e+0005.2800000e+0005.2800000e+0005.3000000e+0005.2950000e+0005.2850000e+0005.2600000e+0005.2500000e+0005.2650000e+0005.2800000e+0005.2800000e+0005.2800000e+0005.2750000e+0005.2700000e+0005.2700000e+0005.2750000e+0005.2850000e+0005.2950000e+0005.2750000e+0005.2700000e+0005.2750000e+0005.3050000e+0005.2900000e+0005.2850000e+0005.2750000e+0005.2800000e+0005.2900000e+0005.3100000e+0005.3050000e+0005.3050000e+0005.3000000e+0005.3000000e+0005.3200000e+0005.3350000e+0005.3300000e+0005.3150000e+0005.3050000e+0005.3050000e+0005.3100000e+0005.3200000e+0005.3200000e+0005.3100000e+0005.3100000e+0005.3150000e+0005.3100000e+0005.3300000e+0005.3150000e+0005.3150000e+0005.3200000e+0005.3100000e+0005.3100000e+0005.3200000e+0005.3450000e+0005.3250000e+0005.3250000e+0005.3050000e+0005.3050000e+0005.3200000e+0005.3100000e+0005.3100000e+0005.3000000e+0005.2950000e+0005.3100000e+0005.3050000e+0005.3000000e+0005.3000000e+0005.2900000e+0005.2800000e+0005.2850000e+0005.3100000e+0005.3050000e+0005.3050000e+0005.2900000e+0005.2950000e+0005.3000000e+0005.2950000e+0005.3000000e+0005.2800000e+0005.2750000e+0005.2800000e+0005.2900000e+0005.3000000e+0005.2850000e+0005.2950000e+0005.2800000e+0005.2800000e+0005.2800000e+0005.3050000e+0005.2950000e+0005.2950000e+0005.2900000e+0005.2950000e+0005.2950000e+0005.3150000e+0005.3150000e+0005.3100000e+0005.2850000e+0005.2850000e+0005.2900000e+0005.3150000e+0005.3200000e+0005.3200000e+0005.3150000e+0005.2950000e+0005.3000000e+0005.3050000e+0005.3050000e+0005.3050000e+0005.3050000e+0005.3000000e+0005.3050000e+0005.3100000e+0005.3250000e+0005.3250000e+0005.3200000e+0005.3100000e+0005.3200000e+0005.3250000e+0005.3200000e+0005.3200000e+0005.3150000e+0005.3250000e+0005.3200000e+0005.3350000e+0005.3400000e+0005.3600000e+0005.3600000e+0005.3600000e+0005.3700000e+0005.3850000e+0005.4100000e+0005.4150000e+0005.3550000e+0005.2950000e+0005.2800000e+0005.2950000e+0005.3100000e+0005.3200000e+0005.3300000e+0005.3200000e+0005.3200000e+0005.3350000e+0005.3300000e+0005.3450000e+0005.3400000e+0005.3300000e+0005.3400000e+0005.3600000e+0005.3600000e+0005.3600000e+0005.3450000e+0005.3450000e+0005.3600000e+0005.3700000e+0005.3700000e+0005.3700000e+0005.3550000e+0005.3500000e+0005.3450000e+0005.3600000e+0005.3750000e+0005.3650000e+0005.3450000e+0005.3400000e+0005.3600000e+0005.3600000e+0005.3750000e+0005.3600000e+0005.3500000e+0005.3650000e+0005.3500000e+0005.3750000e+0005.3850000e+0005.3750000e+0005.3750000e+0005.3750000e+0005.3850000e+0005.3850000e+0005.4000000e+0005.3800000e+0005.3850000e+0005.3700000e+0005.3750000e+0005.3850000e+0005.3850000e+0005.3900000e+0005.3800000e+0005.3900000e+0005.4050000e+0005.4350000e+0005.4400000e+0005.4150000e+0005.4250000e+0005.4400000e+0005.4750000e+0005.4750000e+0005.4450000e+0005.4100000e+0005.4000000e+0005.4150000e+0005.4350000e+0005.4600000e+0005.4700000e+0005.4850000e+0005.4900000e+0005.4900000e+0005.4850000e+0005.4700000e+0005.4450000e+0005.4350000e+0005.4300000e+0005.4150000e+0005.4150000e+0005.4200000e+0005.4400000e+0005.4450000e+0005.4500000e+0005.4450000e+0005.4550000e+0005.4900000e+0005.5000000e+0005.4550000e+0005.3850000e+0005.3600000e+0005.3600000e+0005.3850000e+0005.3850000e+0005.3800000e+0005.3700000e+0005.3500000e+0005.3650000e+0005.3900000e+0005.3900000e+0005.3900000e+0005.3800000e+0005.3500000e+0005.3450000e+0005.3750000e+0005.4000000e+0005.3950000e+0005.4050000e+0005.3950000e+0005.3650000e+0005.3500000e+0005.3400000e+0005.3550000e+0005.3250000e+0005.3150000e+0005.3400000e+0005.3850000e+0005.3850000e+0005.3850000e+0005.3650000e+0005.3650000e+0005.3400000e+0005.3350000e+0005.3250000e+0005.3350000e+0005.3150000e+0005.3250000e+0005.3350000e+0005.3350000e+0005.2900000e+0005.2050000e+0005.1000000e+0005.0000000e+0004.8850000e+0004.7000000e+0004.4050000e+0004.0450000e+0003.7950000e+0003.7050000e+0003.7450000e+0003.8150000e+0003.8600000e+0003.8900000e+0003.9300000e+0004.0000000e+0004.0700000e+0004.1150000e+0004.1400000e+0004.1800000e+0004.2300000e+0004.2900000e+0004.3650000e+0004.4400000e+0004.4950000e+0004.5700000e+0004.6750000e+0004.8150000e+0004.8950000e+0004.9450000e+0005.0150000e+0005.1000000e+0005.1850000e+0005.2550000e+0005.3400000e+0005.4000000e+0005.4550000e+0005.4950000e+0005.5200000e+0005.5650000e+0005.6350000e+0005.6300000e+0005.5900000e+0005.5750000e+0005.6000000e+0005.6200000e+0005.6350000e+0005.6500000e+0005.6500000e+0005.6650000e+0005.6600000e+0005.6550000e+0005.6600000e+0005.6850000e+0005.6950000e+0005.7100000e+0005.7150000e+0005.6950000e+0005.6700000e+0005.6800000e+0005.6900000e+0005.6950000e+0005.6950000e+0005.6850000e+0005.7050000e+0005.7200000e+0005.7200000e+0005.7300000e+0005.7300000e+0005.7200000e+0005.7100000e+0005.7200000e+0005.7200000e+0005.7300000e+0005.7300000e+0005.7350000e+0005.7300000e+0005.7250000e+0005.7150000e+0005.7200000e+0005.7050000e+0005.7100000e+0005.7150000e+0005.7200000e+0005.7300000e+0005.7300000e+0005.7050000e+0005.7150000e+0005.7150000e+0005.7250000e+0005.7150000e+0005.7150000e+0005.6950000e+0005.6950000e+0005.6950000e+0005.7100000e+0005.7050000e+0005.7000000e+0005.6850000e+0005.6700000e+0005.6800000e+0005.6950000e+0005.6900000e+0005.6650000e+0005.6550000e+0005.6550000e+0005.6550000e+0005.6550000e+0005.6450000e+0005.6350000e+0005.6000000e+0005.6000000e+0005.5850000e+0005.5900000e+0005.5850000e+0005.5650000e+0005.5450000e+0005.5200000e+0005.5150000e+0005.5300000e+0005.5250000e+0005.5200000e+0005.4900000e+0005.4600000e+0005.4600000e+0005.4650000e+0005.4600000e+0005.4200000e+0005.4200000e+0005.4050000e+0005.4300000e+0005.4400000e+0005.4400000e+0005.4300000e+0005.3950000e+0005.3750000e+0005.3700000e+0005.3850000e+0005.3950000e+0005.4000000e+0005.3700000e+0005.3750000e+0005.3850000e+0005.3950000e+0005.4050000e+0005.4050000e+0005.3900000e+0005.3650000e+0005.3750000e+0005.3750000e+0005.3900000e+0005.3950000e+0005.3900000e+0005.3800000e+0005.4000000e+0005.4150000e+0005.4250000e+0005.4250000e+0005.4100000e+0005.4100000e+0005.4200000e+0005.4250000e+0005.4200000e+0005.3950000e+0005.4050000e+0005.3900000e+0005.4050000e+0005.4250000e+0005.4350000e+0005.4300000e+0005.4300000e+0005.4200000e+0005.4400000e+0005.4450000e+0005.4500000e+0005.4350000e+0005.4400000e+0005.4450000e+0005.4400000e+0005.4350000e+0005.4300000e+0005.4350000e+0005.4350000e+0005.4200000e+0005.4250000e+0005.4250000e+0005.4300000e+0005.4350000e+0005.4100000e+0005.4100000e+0005.4050000e+0005.4200000e+0005.4150000e+0005.4050000e+0005.3850000e+0005.3850000e+0005.3950000e+0005.3850000e+0005.3900000e+0005.3950000e+0005.3800000e+0005.3750000e+0005.3750000e+0005.3950000e+0005.3850000e+0005.3800000e+0005.3650000e+0005.3650000e+0005.3600000e+0005.3700000e+0005.3650000e+0005.3600000e+0005.3500000e+0005.3450000e+0005.3600000e+0005.3600000e+0005.3550000e+0005.3500000e+0005.3450000e+0005.3400000e+0005.3500000e+0005.3600000e+0005.3550000e+0005.3600000e+0005.3400000e+0005.3450000e+0005.3500000e+0005.3550000e+0005.3450000e+0005.3500000e+0005.3400000e+0005.3250000e+0005.3400000e+0005.3300000e+0005.3350000e+0005.3350000e+0005.3400000e+0005.3200000e+0005.3300000e+0005.3300000e+0005.3500000e+0005.3450000e+0005.3350000e+0005.3400000e+0005.3350000e+0005.3600000e+0005.3550000e+0005.3650000e+0005.3550000e+0005.3300000e+0005.3250000e+0005.3350000e+0005.3650000e+0005.3400000e+0005.3300000e+0005.3350000e+0005.3450000e+0005.3450000e+0005.3450000e+0005.3500000e+0005.3500000e+0005.3400000e+0005.3400000e+0005.3350000e+0005.3250000e+0005.3000000e+0005.2950000e+0005.3050000e+0005.3100000e+0005.3350000e+0005.3200000e+0005.3050000e+0005.3000000e+0005.3100000e+0005.3150000e+0005.3300000e+0005.3250000e+0005.3250000e+0005.3100000e+0005.3000000e+0005.3100000e+0005.3400000e+0005.3250000e+0005.3150000e+0005.3050000e+0005.2950000e+0005.3000000e+0005.3100000e+0005.3150000e+0005.2950000e+0005.3050000e+0005.2800000e+0005.3000000e+0005.3200000e+0005.3150000e+0005.3100000e+0005.2950000e+0005.3050000e+0005.3050000e+0005.3200000e+0005.3300000e+0005.3350000e+0005.3350000e+0005.3350000e+0005.3650000e+0005.3750000e+0005.3800000e+0005.3850000e+0005.3800000e+0005.3800000e+0005.3850000e+0005.3650000e+0005.3700000e+0005.3500000e+0005.3500000e+0005.3300000e+0005.3350000e+0005.3350000e+0005.3300000e+0005.3400000e+0005.3200000e+0005.3250000e+0005.3200000e+0005.3250000e+0005.3150000e+0005.3050000e+0005.2950000e+0005.2800000e+0005.2850000e+0005.2750000e+0005.2750000e+0005.2750000e+0005.2700000e+0005.2650000e+0005.2700000e+0005.2850000e+0005.2850000e+0005.2850000e+0005.2700000e+0005.2550000e+0005.2650000e+0005.2550000e+0005.2800000e+0005.2650000e+0005.2600000e+0005.2450000e+0005.2450000e+0005.2750000e+0005.2750000e+0005.2600000e+0005.2650000e+0005.2550000e+0005.2500000e+0005.2650000e+0005.2600000e+0005.2550000e+0005.2500000e+0005.2400000e+0005.2500000e+0005.2550000e+0005.2600000e+0005.2500000e+0005.2400000e+0005.2200000e+0005.1600000e+0005.0750000e+0004.9600000e+0004.8100000e+0004.6200000e+0004.3950000e+0004.1200000e+0003.8200000e+0003.5850000e+0003.5050000e+0003.5500000e+0003.6050000e+0003.6700000e+0003.7250000e+0003.8050000e+0003.8700000e+0003.9000000e+0003.9300000e+0003.9750000e+0004.0300000e+0004.0950000e+0004.1450000e+0004.2000000e+0004.2750000e+0004.3250000e+0004.3950000e+0004.4850000e+0004.5850000e+0004.6800000e+0004.7650000e+0004.8650000e+0004.9450000e+0005.0200000e+0005.0850000e+0005.1500000e+0005.2150000e+0005.2900000e+0005.3550000e+0005.4150000e+0005.4500000e+0005.4650000e+0005.4800000e+0005.4950000e+0005.5000000e+0005.4850000e+0005.4850000e+0005.4950000e+0005.5050000e+0005.5250000e+0005.5400000e+0005.5500000e+0005.5500000e+0005.5400000e+0005.5350000e+0005.5450000e+0005.5650000e+0005.5600000e+0005.5600000e+0005.5650000e+0005.5650000e+0005.5750000e+0005.5900000e+0005.6000000e+0005.6050000e+0005.6050000e+0005.6100000e+0005.6100000e+0005.6100000e+0005.6050000e+0005.6150000e+0005.6050000e+0005.6050000e+0005.6150000e+0005.6200000e+0005.6100000e+0005.6300000e+0005.6250000e+0005.6200000e+0005.6150000e+0005.6200000e+0005.6250000e+0005.6350000e+0005.6250000e+0005.6200000e+0005.6300000e+0005.6350000e+0005.6400000e+0005.6450000e+0005.6300000e+0005.6150000e+0005.6250000e+0005.6350000e+0005.6300000e+0005.6250000e+0005.6150000e+0005.6050000e+0005.6150000e+0005.6100000e+0005.6150000e+0005.6150000e+0005.5900000e+0005.5900000e+0005.5950000e+0005.5900000e+0005.5950000e+0005.5900000e+0005.5900000e+0005.5750000e+0005.5950000e+0005.6100000e+0005.5850000e+0005.5700000e+0005.5600000e+0005.5550000e+0005.5400000e+0005.5200000e+0005.5100000e+0005.4950000e+0005.4850000e+0005.4700000e+0005.4700000e+0005.4650000e+0005.4550000e+0005.4550000e+0005.4400000e+0005.4400000e+0005.4400000e+0005.4400000e+0005.4100000e+0005.3850000e+0005.3450000e+0005.3350000e+0005.3250000e+0005.3300000e+0005.3150000e+0005.3150000e+0005.3000000e+0005.2950000e+0005.2950000e+0005.2900000e+0005.2900000e+0005.2900000e+0005.2750000e+0005.2600000e+0005.2750000e+0005.3000000e+0005.2850000e+0005.2900000e+0005.2900000e+0005.3300000e+0005.3200000e+0005.3000000e+0005.2700000e+0005.2450000e+0005.2350000e+0005.2500000e+0005.2500000e+0005.2700000e+0005.2650000e+0005.2800000e+0005.2600000e+0005.2550000e+0005.2550000e+0005.2700000e+0005.2650000e+0005.2800000e+0005.2850000e+0005.3100000e+0005.3850000e+0005.4000000e+0005.3250000e+0005.2500000e+0005.2250000e+0005.2350000e+0005.2700000e+0005.2800000e+0005.2750000e+0005.2750000e+0005.2650000e+0005.2750000e+0005.2750000e+0005.3000000e+0005.3000000e+0005.3150000e+0005.3000000e+0005.2950000e+0005.2950000e+0005.3050000e+0005.2800000e+0005.2800000e+0005.2750000e+0005.2700000e+0005.2750000e+0005.2850000e+0005.2800000e+0005.2750000e+0005.2650000e+0005.2800000e+0005.3250000e+0005.3750000e+0005.3550000e+0005.2750000e+0005.2050000e+0005.1850000e+0005.2150000e+0005.2250000e+0005.2400000e+0005.2300000e+0005.2150000e+0005.2250000e+0005.2200000e+0005.2350000e+0005.2300000e+0005.2200000e+0005.2150000e+0005.2050000e+0005.2200000e+0005.2300000e+0005.2300000e+0005.2350000e+0005.2100000e+0005.1850000e+0005.1750000e+0005.2050000e+0005.2000000e+0005.2050000e+0005.1750000e+0005.1700000e+0005.1650000e+0005.1700000e+0005.1800000e+0005.1750000e+0005.1500000e+0005.1350000e+0005.1350000e+0005.1300000e+0005.1400000e+0005.1400000e+0005.1250000e+0005.1250000e+0005.1250000e+0005.1300000e+0005.1350000e+0005.1400000e+0005.1250000e+0005.1200000e+0005.1400000e+0005.1450000e+0005.1450000e+0005.1300000e+0005.1200000e+0005.1150000e+0005.1150000e+0005.1250000e+0005.1100000e+0005.0950000e+0005.0950000e+0005.0850000e+0005.0950000e+0005.1100000e+0005.1050000e+0005.0900000e+0005.0900000e+0005.0850000e+0005.0950000e+0005.1000000e+0005.1050000e+0005.0900000e+0005.0900000e+0005.0900000e+0005.1050000e+0005.1000000e+0005.1100000e+0005.0950000e+0005.0850000e+0005.0850000e+0005.0800000e+0005.1000000e+0005.0850000e+0005.0850000e+0005.0900000e+0005.0850000e+0005.0850000e+0005.0950000e+0005.0850000e+0005.0850000e+0005.0800000e+0005.0950000e+0005.0900000e+0005.1000000e+0005.1000000e+0005.1050000e+0005.0800000e+0005.0850000e+0005.0900000e+0005.0950000e+0005.0850000e+0005.0850000e+0005.0800000e+0005.0700000e+0005.0700000e+0005.1050000e+0005.1000000e+0005.1050000e+0005.0800000e+0005.0850000e+0005.0900000e+0005.1050000e+0005.1150000e+0005.1000000e+0005.0950000e+0005.0950000e+0005.1050000e+0005.1100000e+0005.0950000e+0005.0850000e+0005.0800000e+0005.0950000e+0005.1050000e+0005.0950000e+0005.1050000e+0005.0900000e+0005.0900000e+0005.0800000e+0005.0900000e+0005.1100000e+0005.0950000e+0005.1050000e+0005.1000000e+0005.1050000e+0005.1150000e+0005.1400000e+0005.1500000e+0005.1550000e+0005.1550000e+0005.1650000e+0005.1700000e+0005.1750000e+0005.1800000e+0005.1700000e+0005.1800000e+0005.1750000e+0005.1650000e+0005.1650000e+0005.1550000e+0005.1500000e+0005.1350000e+0005.1400000e+0005.1350000e+0005.1550000e+0005.1450000e+0005.1500000e+0005.1400000e+0005.1400000e+0005.1450000e+0005.1500000e+0005.1400000e+0005.1200000e+0005.1000000e+0005.1100000e+0005.1150000e+0005.1050000e+0005.0950000e+0005.0750000e+0005.0600000e+0005.0700000e+0005.0650000e+0005.0850000e+0005.0750000e+0005.0750000e+0005.0700000e+0005.0700000e+0005.0700000e+0005.0900000e+0005.0900000e+0005.0700000e+0005.0650000e+0005.0650000e+0005.0650000e+0005.0800000e+0005.0800000e+0005.0700000e+0005.0550000e+0005.0450000e+0005.0600000e+0005.0750000e+0005.0700000e+0005.0600000e+0005.0600000e+0005.0650000e+0005.0600000e+0005.0750000e+0005.0650000e+0005.0700000e+0005.0550000e+0005.0550000e+0005.0600000e+0005.0650000e+0005.0450000e+0005.0650000e+0005.0500000e+0005.0550000e+0005.0500000e+0005.0050000e+0004.9150000e+0004.8050000e+0004.6800000e+0004.5200000e+0004.3500000e+0004.1400000e+0003.8850000e+0003.6100000e+0003.3900000e+0003.2750000e+0003.2800000e+0003.3450000e+0003.3900000e+0003.4350000e+0003.4600000e+0003.5250000e+0003.5800000e+0003.6450000e+0003.6700000e+0003.7000000e+0003.7250000e+0003.7800000e+0003.8350000e+0003.9050000e+0003.9500000e+0004.0150000e+0004.0700000e+0004.1200000e+0004.1750000e+0004.2450000e+0004.3300000e+0004.4400000e+0004.5250000e+0004.6100000e+0004.7050000e+0004.8000000e+0004.8750000e+0004.9400000e+0004.9900000e+0005.0750000e+0005.1600000e+0005.2200000e+0005.2600000e+0005.3150000e+0005.3250000e+0005.3450000e+0005.3500000e+0005.3700000e+0005.3900000e+0005.4350000e+0005.4650000e+0005.4800000e+0005.4400000e+0005.4000000e+0005.3850000e+0005.3950000e+0005.4250000e+0005.4400000e+0005.4500000e+0005.4750000e+0005.4800000e+0005.4750000e+0005.4650000e+0005.4600000e+0005.4750000e+0005.4950000e+0005.4800000e+0005.4900000e+0005.5000000e+0005.5150000e+0005.5400000e+0005.5700000e+0005.5850000e+0005.5700000e+0005.5050000e+0005.4700000e+0005.4850000e+0005.5150000e+0005.5150000e+0005.5300000e+0005.5450000e+0005.5700000e+0005.5650000e+0005.5400000e+0005.5050000e+0005.4950000e+0005.5000000e+0005.5050000e+0005.5300000e+0005.5500000e+0005.5350000e+0005.5300000e+0005.5050000e+0005.5150000e+0005.5350000e+0005.5600000e+0005.5600000e+0005.5500000e+0005.5150000e+0005.4950000e+0005.4900000e+0005.4850000e+0005.4800000e+0005.4800000e+0005.4750000e+0005.4600000e+0005.4800000e+0005.4650000e+0005.4600000e+0005.4450000e+0005.4300000e+0005.4400000e+0005.4300000e+0005.4150000e+0005.4000000e+0005.3900000e+0005.3750000e+0005.3600000e+0005.3550000e+0005.3400000e+0005.3200000e+0005.3050000e+0005.2700000e+0005.2500000e+0005.2350000e+0005.2300000e+0005.2000000e+0005.1850000e+0005.1650000e+0005.1450000e+0005.1400000e+0005.1400000e+0005.1300000e+0005.1050000e+0005.0850000e+0005.0750000e+0005.0800000e+0005.0750000e+0005.0650000e+0005.0650000e+0005.0450000e+0005.0450000e+0005.0500000e+0005.0500000e+0005.0500000e+0005.0500000e+0005.0300000e+0005.0300000e+0005.0350000e+0005.0600000e+0005.0600000e+0005.0650000e+0005.0600000e+0005.0600000e+0005.0600000e+0005.0600000e+0005.0700000e+0005.0650000e+0005.0550000e+0005.0550000e+0005.0750000e+0005.0750000e+0005.0800000e+0005.0750000e+0005.0600000e+0005.0700000e+0005.0950000e+0005.1000000e+0005.1100000e+0005.1150000e+0005.1100000e+0005.1100000e+0005.1200000e+0005.1500000e+0005.1600000e+0005.1600000e+0005.1450000e+0005.1500000e+0005.1650000e+0005.1850000e+0005.1950000e+0005.1950000e+0005.2050000e+0005.2100000e+0005.2300000e+0005.2600000e+0005.2600000e+0005.2700000e+0005.2650000e+0005.2850000e+0005.2900000e+0005.3150000e+0005.3200000e+0005.3150000e+0005.3050000e+0005.3150000e+0005.3050000e+0005.3300000e+0005.3300000e+0005.3300000e+0005.3200000e+0005.3350000e+0005.3450000e+0005.3750000e+0005.3850000e+0005.3900000e+0005.3900000e+0005.3900000e+0005.4000000e+0005.4200000e+0005.4250000e+0005.4050000e+0005.4150000e+0005.4100000e+0005.4300000e+0005.4400000e+0005.4350000e+0005.4300000e+0005.4200000e+0005.4200000e+0005.4250000e+0005.4350000e+0005.4450000e+0005.4350000e+0005.4250000e+0005.4350000e+0005.4400000e+0005.4450000e+0005.4350000e+0005.4350000e+0005.4250000e+0005.4250000e+0005.4400000e+0005.4450000e+0005.4550000e+0005.4450000e+0005.4450000e+0005.4350000e+0005.4450000e+0005.4550000e+0005.4450000e+0005.4400000e+0005.4350000e+0005.4300000e+0005.4300000e+0005.4500000e+0005.4500000e+0005.4400000e+0005.4400000e+0005.4300000e+0005.4450000e+0005.4500000e+0005.4600000e+0005.4600000e+0005.4650000e+0005.4550000e+0005.4750000e+0005.4900000e+0005.4750000e+0005.4800000e+0005.4650000e+0005.4650000e+0005.4600000e+0005.4850000e+0005.4800000e+0005.4700000e+0005.4500000e+0005.4500000e+0005.4650000e+0005.4800000e+0005.4800000e+0005.4750000e+0005.4700000e+0005.4450000e+0005.4600000e+0005.4700000e+0005.4600000e+0005.4750000e+0005.4600000e+0005.4600000e+0005.4600000e+0005.4750000e+0005.4750000e+0005.4650000e+0005.4550000e+0005.4500000e+0005.4600000e+0005.4800000e+0005.4700000e+0005.4600000e+0005.4500000e+0005.4400000e+0005.4550000e+0005.4600000e+0005.4600000e+0005.4600000e+0005.4450000e+0005.4400000e+0005.4450000e+0005.4650000e+0005.4600000e+0005.4600000e+0005.4500000e+0005.4400000e+0005.4400000e+0005.4500000e+0005.4500000e+0005.4500000e+0005.4300000e+0005.4200000e+0005.4450000e+0005.4450000e+0005.4350000e+0005.4550000e+0005.4400000e+0005.4300000e+0005.4500000e+0005.4500000e+0005.4450000e+0005.4500000e+0005.4400000e+0005.4400000e+0005.4450000e+0005.4500000e+0005.4650000e+0005.4450000e+0005.4200000e+0005.4200000e+0005.4300000e+0005.4400000e+0005.4400000e+0005.4300000e+0005.4300000e+0005.4300000e+0005.4500000e+0005.4750000e+0005.4750000e+0005.4800000e+0005.4750000e+0005.4750000e+0005.5050000e+0005.5100000e+0005.5250000e+0005.5200000e+0005.5150000e+0005.5100000e+0005.5100000e+0005.4900000e+0005.4950000e+0005.4850000e+0005.4550000e+0005.4550000e+0005.4500000e+0005.4650000e+0005.4700000e+0005.4650000e+0005.4450000e+0005.4400000e+0005.4450000e+0005.4500000e+0005.4400000e+0005.4300000e+0005.4300000e+0005.4100000e+0005.4150000e+0005.4000000e+0005.3750000e+0005.3800000e+0005.3650000e+0005.3650000e+0005.3800000e+0005.3700000e+0005.3700000e+0005.3550000e+0005.3550000e+0005.3550000e+0005.3550000e+0005.3700000e+0005.3700000e+0005.3700000e+0005.3600000e+0005.3550000e+0005.3650000e+0005.3700000e+0005.3700000e+0005.3600000e+0005.3500000e+0005.3350000e+0005.3550000e+0005.3550000e+0005.3450000e+0005.3500000e+0005.3450000e+0005.3400000e+0005.3450000e+0005.3450000e+0005.3400000e+0005.3350000e+0005.3200000e+0005.3250000e+0005.3450000e+0005.3500000e+0005.3450000e+0005.2950000e+0005.2150000e+0005.1150000e+0005.0100000e+0004.9000000e+0004.7400000e+0004.5150000e+0004.2450000e+0003.9650000e+0003.7550000e+0003.6700000e+0003.6850000e+0003.7300000e+0003.7700000e+0003.8150000e+0003.8700000e+0003.9400000e+0003.9950000e+0004.0350000e+0004.0500000e+0004.0950000e+0004.1550000e+0004.2050000e+0004.2500000e+0004.3000000e+0004.3500000e+0004.4050000e+0004.4600000e+0004.5400000e+0004.6450000e+0004.7300000e+0004.8300000e+0004.9050000e+0004.9850000e+0005.0800000e+0005.1650000e+0005.2300000e+0005.2900000e+0005.3650000e+0005.4100000e+0005.4650000e+0005.5000000e+0005.5150000e+0005.5050000e+0005.5300000e+0005.5400000e+0005.5450000e+0005.5700000e+0005.5500000e+0005.5600000e+0005.5550000e+0005.5750000e+0005.5850000e+0005.5850000e+0005.5850000e+0005.5800000e+0005.5800000e+0005.5950000e+0005.6100000e+0005.6150000e+0005.6100000e+0005.6050000e+0005.6100000e+0005.6100000e+0005.6250000e+0005.6150000e+0005.6150000e+0005.6100000e+0005.6200000e+0005.6250000e+0005.6450000e+0005.6450000e+0005.6300000e+0005.6250000e+0005.6100000e+0005.6300000e+0005.6300000e+0005.6250000e+0005.6300000e+0005.6200000e+0005.6200000e+0005.6300000e+0005.6450000e+0005.6300000e+0005.6300000e+0005.6150000e+0005.6100000e+0005.6150000e+0005.6300000e+0005.6250000e+0005.6150000e+0005.6150000e+0005.6150000e+0005.6200000e+0005.6300000e+0005.6150000e+0005.6250000e+0005.6100000e+0005.6150000e+0005.6200000e+0005.6300000e+0005.6150000e+0005.6200000e+0005.6000000e+0005.5900000e+0005.6050000e+0005.6050000e+0005.5950000e+0005.5800000e+0005.5800000e+0005.5700000e+0005.5600000e+0005.5800000e+0005.5700000e+0005.5600000e+0005.5450000e+0005.5400000e+0005.5400000e+0005.5500000e+0005.5250000e+0005.5250000e+0005.5000000e+0005.5000000e+0005.4950000e+0005.5000000e+0005.4800000e+0005.4600000e+0005.4450000e+0005.4400000e+0005.4250000e+0005.4200000e+0005.4050000e+0005.3950000e+0005.3800000e+0005.3600000e+0005.3700000e+0005.3550000e+0005.3500000e+0005.3450000e+0005.3250000e+0005.3250000e+0005.3250000e+0005.3200000e+0005.3200000e+0005.3150000e+0005.3050000e+0005.2950000e+0005.2750000e+0005.3000000e+0005.2950000e+0005.2850000e+0005.2750000e+0005.2750000e+0005.2950000e+0005.3050000e+0005.3050000e+0005.2800000e+0005.2850000e+0005.2750000e+0005.2900000e+0005.3050000e+0005.3050000e+0005.3200000e+0005.3200000e+0005.3100000e+0005.3500000e+0005.3600000e+0005.3450000e+0005.3100000e+0005.2850000e+0005.2800000e+0005.2950000e+0005.3100000e+0005.3100000e+0005.3000000e+0005.2800000e+0005.2900000e+0005.3050000e+0005.3150000e+0005.3200000e+0005.3100000e+0005.3100000e+0005.3100000e+0005.3250000e+0005.3350000e+0005.3400000e+0005.3300000e+0005.3250000e+0005.3150000e+0005.3350000e+0005.3400000e+0005.3450000e+0005.3300000e+0005.3150000e+0005.3150000e+0005.3200000e+0005.3400000e+0005.3400000e+0005.3400000e+0005.3250000e+0005.3350000e+0005.3350000e+0005.3350000e+0005.3400000e+0005.3300000e+0005.3250000e+0005.3150000e+0005.3250000e+0005.3350000e+0005.3200000e+0005.3150000e+0005.3100000e+0005.3050000e+0005.3150000e+0005.3250000e+0005.3150000e+0005.3100000e+0005.2950000e+0005.2850000e+0005.2850000e+0005.3150000e+0005.2950000e+0005.2900000e+0005.2850000e+0005.2850000e+0005.3000000e+0005.3100000e+0005.3100000e+0005.3000000e+0005.3050000e+0005.3200000e+0005.3550000e+0005.3800000e+0005.3200000e+0005.2650000e+0005.2400000e+0005.2300000e+0005.2550000e+0005.2750000e+0005.2650000e+0005.2550000e+0005.2600000e+0005.2500000e+0005.2600000e+0005.2850000e+0005.2750000e+0005.2700000e+0005.2600000e+0005.2550000e+0005.2550000e+0005.2650000e+0005.2600000e+0005.2450000e+0005.2350000e+0005.2300000e+0005.2500000e+0005.2700000e+0005.2450000e+0005.2350000e+0005.2250000e+0005.2300000e+0005.2300000e+0005.2350000e+0005.2450000e+0005.2350000e+0005.2350000e+0005.2350000e+0005.2350000e+0005.2450000e+0005.2350000e+0005.2250000e+0005.2100000e+0005.2150000e+0005.2200000e+0005.2250000e+0005.2350000e+0005.2050000e+0005.2200000e+0005.2050000e+0005.2200000e+0005.2350000e+0005.2300000e+0005.2200000e+0005.2150000e+0005.2250000e+0005.2250000e+0005.2450000e+0005.2350000e+0005.2200000e+0005.2250000e+0005.2100000e+0005.2250000e+0005.2300000e+0005.2200000e+0005.1950000e+0005.2050000e+0005.2050000e+0005.2250000e+0005.2400000e+0005.2300000e+0005.2250000e+0005.2250000e+0005.2100000e+0005.2300000e+0005.2350000e+0005.2300000e+0005.2350000e+0005.2150000e+0005.2200000e+0005.2100000e+0005.2150000e+0005.2150000e+0005.2200000e+0005.2100000e+0005.2150000e+0005.2100000e+0005.2200000e+0005.2150000e+0005.2100000e+0005.1950000e+0005.2150000e+0005.2300000e+0005.2300000e+0005.2250000e+0005.2350000e+0005.2150000e+0005.2100000e+0005.2200000e+0005.2200000e+0005.2200000e+0005.2150000e+0005.2100000e+0005.2200000e+0005.2350000e+0005.2550000e+0005.2650000e+0005.2600000e+0005.2700000e+0005.2800000e+0005.2850000e+0005.3050000e+0005.3050000e+0005.3150000e+0005.3150000e+0005.3000000e+0005.2850000e+0005.2900000e+0005.2800000e+0005.2750000e+0005.2550000e+0005.2450000e+0005.2550000e+0005.2700000e+0005.2600000e+0005.2500000e+0005.2600000e+0005.2550000e+0005.2600000e+0005.2550000e+0005.2450000e+0005.2550000e+0005.2300000e+0005.2300000e+0005.2200000e+0005.2250000e+0005.2100000e+0005.1950000e+0005.1950000e+0005.1800000e+0005.2000000e+0005.2000000e+0005.2050000e+0005.1950000e+0005.1850000e+0005.1850000e+0005.1900000e+0005.2000000e+0005.1950000e+0005.1950000e+0005.1850000e+0005.1800000e+0005.1850000e+0005.1950000e+0005.1950000e+0005.1850000e+0005.1700000e+0005.1700000e+0005.1750000e+0005.1800000e+0005.1800000e+0005.1800000e+0005.1650000e+0005.1650000e+0005.1700000e+0005.1750000e+0005.1750000e+0005.1600000e+0005.1650000e+0005.1750000e+0005.1750000e+0005.1500000e+0005.0800000e+0004.9650000e+0004.8600000e+0004.7300000e+0004.5700000e+0004.3850000e+0004.1050000e+0003.8150000e+0003.5950000e+0003.5150000e+0003.5350000e+0003.6000000e+0003.6450000e+0003.6700000e+0003.7300000e+0003.7850000e+0003.8650000e+0003.9100000e+0003.9300000e+0003.9750000e+0004.0000000e+0004.0650000e+0004.1300000e+0004.1950000e+0004.2450000e+0004.2950000e+0004.3450000e+0004.4300000e+0004.5600000e+0004.6650000e+0004.7450000e+0004.8200000e+0004.9000000e+0004.9900000e+0005.0750000e+0005.1550000e+0005.2200000e+0005.2750000e+0005.3150000e+0005.3550000e+0005.3850000e+0005.4250000e+0005.4250000e+0005.4250000e+0005.4300000e+0005.4450000e+0005.4600000e+0005.4600000e+0005.4700000e+0005.4800000e+0005.4800000e+0005.4700000e+0005.5000000e+0005.5050000e+0005.5150000e+0005.5050000e+0005.5050000e+0005.5050000e+0005.5250000e+0005.5300000e+0005.5300000e+0005.5300000e+0005.5250000e+0005.5150000e+0005.5250000e+0005.5400000e+0005.5300000e+0005.5450000e+0005.5300000e+0005.5300000e+0005.5450000e+0005.5500000e+0005.5400000e+0005.5350000e+0005.5300000e+0005.5350000e+0005.5550000e+0005.5700000e+0005.5600000e+0005.5550000e+0005.5550000e+0005.5600000e+0005.5700000e+0005.5750000e+0005.5700000e+0005.5600000e+0005.5500000e+0005.5500000e+0005.5650000e+0005.5850000e+0005.5700000e+0005.5700000e+0005.5500000e+0005.5500000e+0005.5600000e+0005.5650000e+0005.5600000e+0005.5650000e+0005.5550000e+0005.5500000e+0005.5400000e+0005.5500000e+0005.5500000e+0005.5400000e+0005.5350000e+0005.5150000e+0005.5200000e+0005.5300000e+0005.5100000e+0005.5200000e+0005.4950000e+0005.4950000e+0005.4900000e+0005.4950000e+0005.4750000e+0005.4650000e+0005.4550000e+0005.4450000e+0005.4450000e+0005.4450000e+0005.4350000e+0005.4200000e+0005.4000000e+0005.3700000e+0005.3800000e+0005.3800000e+0005.3600000e+0005.3500000e+0005.3350000e+0005.3150000e+0005.3100000e+0005.3050000e+0005.3000000e+0005.2800000e+0005.2700000e+0005.2550000e+0005.2600000e+0005.2750000e+0005.2650000e+0005.2550000e+0005.2400000e+0005.2400000e+0005.2500000e+0005.2550000e+0005.2500000e+0005.2400000e+0005.2400000e+0005.2300000e+0005.2350000e+0005.2500000e+0005.2450000e+0005.2400000e+0005.2400000e+0005.2350000e+0005.2500000e+0005.2600000e+0005.2700000e+0005.2550000e+0005.2450000e+0005.2600000e+0005.2550000e+0005.2650000e+0005.2650000e+0005.2700000e+0005.2600000e+0005.2600000e+0005.2700000e+0005.2800000e+0005.2750000e+0005.2750000e+0005.2650000e+0005.2600000e+0005.2850000e+0005.2950000e+0005.3000000e+0005.2950000e+0005.2850000e+0005.2900000e+0005.3000000e+0005.3200000e+0005.3050000e+0005.3000000e+0005.2950000e+0005.2800000e+0005.2950000e+0005.3050000e+0005.3000000e+0005.3000000e+0005.2850000e+0005.2950000e+0005.3000000e+0005.3050000e+0005.3050000e+0005.2900000e+0005.2950000e+0005.2950000e+0005.2950000e+0005.3000000e+0005.2950000e+0005.2800000e+0005.2700000e+0005.2600000e+0005.2700000e+0005.2800000e+0005.2700000e+0005.2600000e+0005.2450000e+0005.2450000e+0005.2650000e+0005.2800000e+0005.2650000e+0005.2550000e+0005.2700000e+0005.2600000e+0005.2500000e+0005.2550000e+0005.2700000e+0005.2450000e+0005.2250000e+0005.2150000e+0005.2500000e+0005.2400000e+0005.2450000e+0005.2350000e+0005.2350000e+0005.2200000e+0005.2350000e+0005.2500000e+0005.2250000e+0005.2400000e+0005.2200000e+0005.2200000e+0005.2300000e+0005.2400000e+0005.2400000e+0005.2200000e+0005.2100000e+0005.2150000e+0005.2150000e+0005.2300000e+0005.2300000e+0005.2150000e+0005.2000000e+0005.2000000e+0005.2100000e+0005.2200000e+0005.2200000e+0005.2050000e+0005.2100000e+0005.2100000e+0005.2250000e+0005.2300000e+0005.2200000e+0005.2150000e+0005.2150000e+0005.2150000e+0005.2000000e+0005.2250000e+0005.2150000e+0005.2150000e+0005.1950000e+0005.1850000e+0005.2000000e+0005.2050000e+0005.2050000e+0005.2050000e+0005.1950000e+0005.2000000e+0005.2100000e+0005.2350000e+0005.2150000e+0005.2100000e+0005.1950000e+0005.2100000e+0005.2100000e+0005.2150000e+0005.2150000e+0005.2050000e+0005.2000000e+0005.1850000e+0005.2100000e+0005.2300000e+0005.2150000e+0005.2100000e+0005.1950000e+0005.1850000e+0005.2200000e+0005.2250000e+0005.2200000e+0005.2150000e+0005.1950000e+0005.2050000e+0005.2100000e+0005.2150000e+0005.2100000e+0005.2050000e+0005.1900000e+0005.1900000e+0005.2000000e+0005.2200000e+0005.2050000e+0005.2050000e+0005.2100000e+0005.2100000e+0005.2250000e+0005.2400000e+0005.2550000e+0005.2600000e+0005.2500000e+0005.2650000e+0005.2900000e+0005.2950000e+0005.2900000e+0005.3000000e+0005.2900000e+0005.2700000e+0005.2700000e+0005.2600000e+0005.2650000e+0005.2450000e+0005.2200000e+0005.2200000e+0005.2300000e+0005.2250000e+0005.2500000e+0005.2400000e+0005.2350000e+0005.2350000e+0005.2200000e+0005.2300000e+0005.2300000e+0005.2050000e+0005.1900000e+0005.1600000e+0005.1650000e+0005.1700000e+0005.1650000e+0005.1600000e+0005.1450000e+000