-3.4000000e+001
1.2000000e+001
2.8000000e+001
4.4000000e+001
6.3000000e+001
7.6000000e+001
9.6000000e+001
1.2400000e+002
1.4300000e+002
1.6400000e+002
1.8000000e+002
1.9200000e+002
2.2800000e+002
2.5400000e+002
2.8800000e+002
3.1700000e+002
3.4200000e+002
3.7200000e+002
3.9800000e+002
4.2600000e+002
4.6200000e+002
4.9200000e+002
5.2000000e+002
5.5200000e+002
5.7500000e+002
6.1200000e+002
6.5200000e+002
6.9200000e+002
7.4000000e+002
7.7700000e+002
8.2000000e+002
8.6000000e+002
8.8800000e+002
9.2700000e+002
9.6800000e+002
1.0010000e+003
1.0440000e+003
1.0800000e+003
1.1120000e+003
1.1400000e+003
1.1510000e+003
1.1760000e+003
1.1800000e+003
1.1760000e+003
1.1880000e+003
1.1900000e+003
1.1800000e+003
1.1740000e+003
1.1420000e+003
1.1100000e+003
1.0800000e+003
1.0230000e+003
9.8000000e+002
9.0800000e+002
8.3900000e+002
7.6000000e+002
6.6600000e+002
5.8100000e+002
4.9400000e+002
4.0000000e+002
3.1900000e+002
2.4000000e+002
1.6800000e+002
1.0400000e+002
3.6000000e+001
-4.0000000e+001
-9.3000000e+001
-1.4800000e+002
-1.8400000e+002
-2.3200000e+002
-2.6400000e+002
-2.9600000e+002
-3.3500000e+002
-3.6600000e+002
-3.9400000e+002
-4.2000000e+002
-4.3600000e+002
-4.5700000e+002
-4.7200000e+002
-4.8400000e+002
-5.0400000e+002
-5.1000000e+002
-5.2600000e+002
-5.4000000e+002
-5.4800000e+002
-5.6200000e+002
-5.6800000e+002
-5.7500000e+002
-5.9200000e+002
-5.8900000e+002
-5.9600000e+002
-6.0200000e+002
-5.9800000e+002
-6.0100000e+002
-6.0000000e+002
-6.0200000e+002
-6.0900000e+002
-6.1000000e+002
-6.1600000e+002
-6.2000000e+002
-6.1200000e+002
-6.2000000e+002
-6.2400000e+002
-6.2800000e+002
-6.3200000e+002
-6.3200000e+002
-6.3600000e+002
-6.3800000e+002
-6.3200000e+002
-6.3100000e+002
-6.3000000e+002
-6.2600000e+002
-6.3600000e+002
-6.3000000e+002
-6.2100000e+002
-6.2000000e+002
-6.0800000e+002
-6.0800000e+002
-6.0900000e+002
-6.0000000e+002
-6.0900000e+002
-6.0800000e+002
-6.0800000e+002
-6.0400000e+002
-5.9300000e+002
-5.9600000e+002
-5.9100000e+002
-5.8600000e+002
-5.8800000e+002
-5.9100000e+002
-5.8500000e+002
-5.8500000e+002
-5.7300000e+002
-5.7400000e+002
-5.8000000e+002
-5.8000000e+002
-5.8600000e+002
-5.9000000e+002
-5.9600000e+002
-5.9800000e+002
-5.9000000e+002
-6.0000000e+002
-6.0400000e+002
-6.0000000e+002
-6.1600000e+002
-6.2200000e+002
-6.2800000e+002
-6.3300000e+002
-6.3000000e+002
-6.3200000e+002
-6.2600000e+002
-6.2800000e+002
-6.3900000e+002
-6.3900000e+002
-6.4600000e+002
-6.5900000e+002
-6.5200000e+002
-6.6100000e+002
-6.6800000e+002
-6.6400000e+002
-6.7400000e+002
-6.8400000e+002
-6.8400000e+002
-6.8800000e+002
-6.8000000e+002
-6.8100000e+002
-6.8800000e+002
-6.8800000e+002
-6.9300000e+002
-6.9400000e+002
-6.9600000e+002
-7.0400000e+002
-6.9600000e+002
-7.0400000e+002
-7.0400000e+002
-7.0900000e+002
-7.1900000e+002
-7.2400000e+002
-7.2000000e+002
-7.2800000e+002
-7.2200000e+002
-7.2200000e+002
-7.1900000e+002
-7.1600000e+002
-7.2800000e+002
-7.2800000e+002
-7.3000000e+002
-7.3800000e+002
-7.3800000e+002
-7.4400000e+002
-7.5000000e+002
-7.5000000e+002
-7.6000000e+002
-7.5600000e+002
-7.6000000e+002
-7.6000000e+002
-7.4800000e+002
-7.5600000e+002
-7.5200000e+002
-7.5000000e+002
-7.5400000e+002
-7.4800000e+002
-7.5200000e+002
-7.4900000e+002
-7.4200000e+002
-7.4900000e+002
-7.5400000e+002
-7.4900000e+002
-7.5200000e+002
-7.4800000e+002
-7.5200000e+002
-7.5200000e+002
-7.4400000e+002
-7.4600000e+002
-7.4800000e+002
-7.4800000e+002
-7.5300000e+002
-7.4800000e+002
-7.4400000e+002
-7.4400000e+002
-7.4200000e+002
-7.4200000e+002
-7.4800000e+002
-7.5000000e+002
-7.6800000e+002
-7.6000000e+002
-7.5600000e+002
-7.6000000e+002
-7.4600000e+002
-7.4600000e+002
-7.4400000e+002
-7.4300000e+002
-7.4500000e+002
-7.4200000e+002
-7.4000000e+002
-7.3700000e+002
-7.2900000e+002
-7.3300000e+002
-7.2800000e+002
-7.2400000e+002
-7.3200000e+002
-7.2800000e+002
-7.2400000e+002
-7.1600000e+002
-6.9600000e+002
-6.8900000e+002
-6.8800000e+002
-6.6500000e+002
-6.6400000e+002
-6.7600000e+002
-6.8100000e+002
-6.8400000e+002
-6.6800000e+002
-6.5400000e+002
-6.6400000e+002
-6.8200000e+002
-7.2600000e+002
-7.5300000e+002
-7.6800000e+002
-7.8000000e+002
-7.8300000e+002
-7.7300000e+002
-7.4400000e+002
-7.2000000e+002
-7.2500000e+002
-7.4000000e+002
-7.7200000e+002
-8.0200000e+002
-8.2500000e+002
-8.5300000e+002
-8.4000000e+002
-8.2500000e+002
-8.0400000e+002
-8.0400000e+002
-7.9800000e+002
-7.8900000e+002
-7.8600000e+002
-7.9600000e+002
-8.0900000e+002
-8.1700000e+002
-8.3000000e+002
-8.2600000e+002
-8.2300000e+002
-8.2400000e+002
-8.1400000e+002
-8.1600000e+002
-8.1200000e+002
-8.0900000e+002
-8.0900000e+002
-8.0100000e+002
-7.9900000e+002
-7.9600000e+002
-7.8800000e+002
-7.8500000e+002
-7.7800000e+002
-7.7600000e+002
-7.7700000e+002
-7.7600000e+002
-7.7100000e+002
-7.5700000e+002
-7.1200000e+002
-6.3600000e+002
-4.8900000e+002
-2.5400000e+002
-8.0000000e+000
3.5200000e+002
5.7400000e+002
7.0000000e+002
8.0200000e+002
9.6000000e+002
1.2220000e+003
1.3040000e+003
1.0980000e+003
7.3700000e+002
1.0400000e+002
-7.9200000e+002
-1.9240000e+003
-3.0720000e+003
-3.8960000e+003
-4.7200000e+003
-5.5440000e+003
-6.3680000e+003
-7.1920000e+003
-6.9290000e+003
-6.1610000e+003
-5.3930000e+003
-4.6250000e+003
-3.8570000e+003
-3.0890000e+003
-2.5010000e+003
-2.0630000e+003
-1.7720000e+003
-1.6020000e+003
-1.4620000e+003
-1.2400000e+003
-9.6000000e+002
-7.1600000e+002
-5.7500000e+002
-5.0400000e+002
-4.6400000e+002
-4.0700000e+002
-3.2400000e+002
-2.3800000e+002
-1.8800000e+002
-1.8000000e+002
-1.7600000e+002
-1.6800000e+002
-1.4200000e+002
-8.5000000e+001
-4.8000000e+001
-2.4000000e+001
-2.0000000e+001
-2.3000000e+001
1.2000000e+001
3.8000000e+001
6.3000000e+001
1.0000000e+002
1.1600000e+002
1.2400000e+002
1.4200000e+002
1.5400000e+002
1.8000000e+002
2.0400000e+002
2.3600000e+002
2.6300000e+002
2.8000000e+002
3.0000000e+002
3.2500000e+002
3.4200000e+002
3.7600000e+002
4.0100000e+002
4.2000000e+002
4.4800000e+002
4.7600000e+002
5.1100000e+002
5.4800000e+002
5.6900000e+002
6.0600000e+002
6.3900000e+002
6.7000000e+002
7.1600000e+002
7.4600000e+002
7.8200000e+002
8.2400000e+002
8.5800000e+002
8.9600000e+002
9.3600000e+002
9.7500000e+002
1.0200000e+003
1.0460000e+003
1.0780000e+003
1.1110000e+003
1.1320000e+003
1.1580000e+003
1.1800000e+003
1.1920000e+003
1.2100000e+003
1.2170000e+003
1.2220000e+003
1.2260000e+003
1.2060000e+003
1.2060000e+003
1.1900000e+003
1.1600000e+003
1.1320000e+003
1.0870000e+003
1.0390000e+003
9.8200000e+002
9.1000000e+002
8.3600000e+002
7.5200000e+002
6.6200000e+002
5.8200000e+002
4.9200000e+002
4.1400000e+002
3.3500000e+002
2.5500000e+002
1.9200000e+002
1.3400000e+002
7.2000000e+001
2.3000000e+001
-5.0000000e+001
-9.6000000e+001
-1.3600000e+002
-1.8000000e+002
-2.1400000e+002
-2.5000000e+002
-2.8200000e+002
-3.0400000e+002
-3.2800000e+002
-3.5600000e+002
-3.7600000e+002
-4.0600000e+002
-4.2200000e+002
-4.4000000e+002
-4.5200000e+002
-4.5500000e+002
-4.6800000e+002
-4.7600000e+002
-4.8500000e+002
-5.0100000e+002
-5.0600000e+002
-5.1000000e+002
-5.1800000e+002
-5.1100000e+002
-5.2400000e+002
-5.2400000e+002
-5.2600000e+002
-5.3200000e+002
-5.4000000e+002
-5.4500000e+002
-5.5300000e+002
-5.4900000e+002
-5.5200000e+002
-5.6000000e+002
-5.6400000e+002
-5.7300000e+002
-5.7300000e+002
-5.7500000e+002
-5.7400000e+002
-5.6400000e+002
-5.6800000e+002
-5.6600000e+002
-5.5700000e+002
-5.6400000e+002
-5.6200000e+002
-5.6300000e+002
-5.6600000e+002
-5.6000000e+002
-5.6000000e+002
-5.6000000e+002
-5.6000000e+002
-5.6400000e+002
-5.5800000e+002
-5.6000000e+002
-5.6000000e+002
-5.5000000e+002
-5.5100000e+002
-5.4800000e+002
-5.4800000e+002
-5.4800000e+002
-5.4500000e+002
-5.4200000e+002
-5.4400000e+002
-5.3600000e+002
-5.4000000e+002
-5.4200000e+002
-5.4000000e+002
-5.4800000e+002
-5.4500000e+002
-5.4500000e+002
-5.4400000e+002
-5.4000000e+002
-5.4100000e+002
-5.4500000e+002
-5.5000000e+002
-5.6000000e+002
-5.5300000e+002
-5.5600000e+002
-5.6400000e+002
-5.5700000e+002
-5.6200000e+002
-5.6800000e+002
-5.7300000e+002
-5.8400000e+002
-5.9000000e+002
-5.9300000e+002
-6.0400000e+002
-5.9600000e+002
-6.0800000e+002
-6.1000000e+002
-6.0900000e+002
-6.1600000e+002
-6.2000000e+002
-6.2400000e+002
-6.2800000e+002
-6.2400000e+002
-6.3400000e+002
-6.4600000e+002
-6.4900000e+002
-6.6000000e+002
-6.6400000e+002
-6.7200000e+002
-6.7300000e+002
-6.7600000e+002
-6.8400000e+002
-6.8400000e+002
-6.8500000e+002
-6.9300000e+002
-6.9400000e+002
-7.0400000e+002
-7.0600000e+002
-7.0400000e+002
-7.0500000e+002
-7.0400000e+002
-7.0400000e+002
-7.0800000e+002
-7.0400000e+002
-7.0400000e+002
-7.0500000e+002
-7.0000000e+002
-7.0600000e+002
-7.1600000e+002
-7.1900000e+002
-7.1900000e+002
-7.1800000e+002
-7.1600000e+002
-7.1300000e+002
-7.0400000e+002
-6.9600000e+002
-6.9200000e+002
-6.9200000e+002
-7.0400000e+002
-7.0400000e+002
-7.0500000e+002
-7.0800000e+002
-7.0400000e+002
-7.1000000e+002
-7.0400000e+002
-7.0400000e+002
-7.1000000e+002
-7.0800000e+002
-7.0400000e+002
-7.0400000e+002
-6.9400000e+002
-6.9600000e+002
-6.9600000e+002
-6.9400000e+002
-7.0000000e+002
-7.0000000e+002
-7.0000000e+002
-7.1000000e+002
-7.0900000e+002
-7.1600000e+002
-7.1000000e+002
-7.1000000e+002
-7.2000000e+002
-7.2000000e+002
-7.1900000e+002
-7.2000000e+002
-7.1800000e+002
-7.2400000e+002
-7.2600000e+002
-7.2400000e+002
-7.2900000e+002
-7.2800000e+002
-7.2400000e+002
-7.2800000e+002
-7.2600000e+002
-7.2800000e+002
-7.3600000e+002
-7.3200000e+002
-7.3600000e+002
-7.3200000e+002
-7.4000000e+002
-7.3800000e+002
-7.2500000e+002
-7.2400000e+002
-7.2100000e+002
-7.2200000e+002
-7.2000000e+002
-7.1200000e+002
-7.0000000e+002
-6.8800000e+002
-6.8000000e+002
-6.6800000e+002
-6.5800000e+002
-6.6200000e+002
-6.7400000e+002
-6.7600000e+002
-6.7600000e+002
-6.6800000e+002
-6.4700000e+002
-6.5700000e+002
-6.8400000e+002
-7.1000000e+002
-7.4100000e+002
-7.5200000e+002
-7.6800000e+002
-7.6800000e+002
-7.4400000e+002
-7.2400000e+002
-7.1200000e+002
-7.1600000e+002
-7.4800000e+002
-7.7500000e+002
-8.1500000e+002
-8.3800000e+002
-8.4400000e+002
-8.2800000e+002
-8.0100000e+002
-7.7700000e+002
-7.7600000e+002
-7.6800000e+002
-7.5800000e+002
-7.6800000e+002
-7.6800000e+002
-7.7500000e+002
-7.8800000e+002
-7.8800000e+002
-7.8900000e+002
-7.8100000e+002
-7.8300000e+002
-7.8500000e+002
-7.7700000e+002
-7.7500000e+002
-7.7200000e+002
-7.6800000e+002
-7.7500000e+002
-7.6800000e+002
-7.7500000e+002
-7.8200000e+002
-7.7200000e+002
-7.7300000e+002
-7.6800000e+002
-7.6000000e+002
-7.7200000e+002
-7.6800000e+002
-7.4600000e+002
-7.0800000e+002
-6.2000000e+002
-4.6900000e+002
-2.3100000e+002
5.2000000e+001
3.8400000e+002
5.9000000e+002
7.0600000e+002
7.9000000e+002
9.6600000e+002
1.2170000e+003
1.3020000e+003
1.1300000e+003
7.4300000e+002
1.0200000e+002
-7.5000000e+002
-1.9280000e+003
-3.0810000e+003
-3.8880000e+003
-4.6950000e+003
-5.5020000e+003
-6.3090000e+003
-7.1160000e+003
-6.7600000e+003
-6.0070000e+003
-5.2540000e+003
-4.5010000e+003
-3.7480000e+003
-2.9950000e+003
-2.4520000e+003
-2.0520000e+003
-1.7920000e+003
-1.6330000e+003
-1.4760000e+003
-1.2440000e+003
-9.6200000e+002
-7.1700000e+002
-5.9200000e+002
-5.3200000e+002
-4.8400000e+002
-4.2000000e+002
-3.3200000e+002
-2.5500000e+002
-2.1200000e+002
-1.9600000e+002
-2.0400000e+002
-1.9200000e+002
-1.6400000e+002
-1.1800000e+002
-6.6000000e+001
-4.9000000e+001
-4.7000000e+001
-3.6000000e+001
-2.3000000e+001
2.4000000e+001
5.6000000e+001
7.1000000e+001
9.4000000e+001
9.8000000e+001
1.1400000e+002
1.4000000e+002
1.5600000e+002
1.8000000e+002
2.1200000e+002
2.3000000e+002
2.5500000e+002
2.8600000e+002
3.1200000e+002
3.4000000e+002
3.6000000e+002
3.8400000e+002
4.0800000e+002
4.3000000e+002
4.6500000e+002
4.9400000e+002
5.2400000e+002
5.5200000e+002
5.7300000e+002
6.0600000e+002
6.3600000e+002
6.6000000e+002
7.0000000e+002
7.3800000e+002
7.6800000e+002
8.0700000e+002
8.3000000e+002
8.6500000e+002
9.0800000e+002
9.4000000e+002
9.8400000e+002
1.0160000e+003
1.0440000e+003
1.0680000e+003
1.0800000e+003
1.1000000e+003
1.1160000e+003
1.1240000e+003
1.1420000e+003
1.1420000e+003
1.1440000e+003
1.1360000e+003
1.1160000e+003
1.1000000e+003
1.0700000e+003
1.0230000e+003
9.9200000e+002
9.4000000e+002
8.8400000e+002
8.2000000e+002
7.4200000e+002
6.6900000e+002
5.8800000e+002
5.0400000e+002
4.3400000e+002
3.5200000e+002
2.8000000e+002
2.1600000e+002
1.4800000e+002
9.6000000e+001
4.6000000e+001
-2.1000000e+001
-5.2000000e+001
-9.6000000e+001
-1.4000000e+002
-1.7600000e+002
-2.1200000e+002
-2.4000000e+002
-2.6500000e+002
-2.9600000e+002
-3.1600000e+002
-3.4000000e+002
-3.6000000e+002
-3.7300000e+002
-3.9400000e+002
-4.1500000e+002
-4.2400000e+002
-4.3700000e+002
-4.4900000e+002
-4.6100000e+002
-4.7300000e+002
-4.8800000e+002
-5.0400000e+002
-5.0800000e+002
-5.1000000e+002
-5.2400000e+002
-5.2800000e+002
-5.3300000e+002
-5.3300000e+002
-5.4000000e+002
-5.4900000e+002
-5.4600000e+002
-5.4300000e+002
-5.4600000e+002
-5.4500000e+002
-5.5600000e+002
-5.5800000e+002
-5.6000000e+002
-5.6600000e+002
-5.6800000e+002
-5.6900000e+002
-5.6800000e+002
-5.6100000e+002
-5.6000000e+002
-5.5800000e+002
-5.5200000e+002
-5.5800000e+002
-5.5700000e+002
-5.6000000e+002
-5.5600000e+002
-5.5100000e+002
-5.5800000e+002
-5.5600000e+002
-5.5800000e+002
-5.5600000e+002
-5.5100000e+002
-5.4600000e+002
-5.4800000e+002
-5.3400000e+002
-5.3200000e+002
-5.2700000e+002
-5.2200000e+002
-5.2500000e+002
-5.1800000e+002
-5.1000000e+002
-5.0800000e+002
-5.0000000e+002
-5.0000000e+002
-4.9200000e+002
-4.8800000e+002
-4.9600000e+002
-4.9300000e+002
-4.9600000e+002
-5.0200000e+002
-5.0000000e+002
-5.0900000e+002
-5.1100000e+002
-5.1100000e+002
-5.2600000e+002
-5.2600000e+002
-5.2700000e+002
-5.2900000e+002
-5.2700000e+002
-5.3300000e+002
-5.3700000e+002
-5.4000000e+002
-5.5100000e+002
-5.5000000e+002
-5.6000000e+002
-5.6700000e+002
-5.6800000e+002
-5.6800000e+002
-5.7300000e+002
-5.8000000e+002
-5.8500000e+002
-5.8600000e+002
-5.8400000e+002
-5.9700000e+002
-5.9600000e+002
-6.0000000e+002
-6.0000000e+002
-6.0800000e+002
-6.2400000e+002
-6.2500000e+002
-6.2800000e+002
-6.3200000e+002
-6.3300000e+002
-6.3800000e+002
-6.3900000e+002
-6.4700000e+002
-6.5600000e+002
-6.6000000e+002
-6.6800000e+002
-6.7000000e+002
-6.5800000e+002
-6.6000000e+002
-6.6200000e+002
-6.6400000e+002
-6.6800000e+002
-6.6600000e+002
-6.7300000e+002
-6.8000000e+002
-6.7600000e+002
-6.7600000e+002
-6.7600000e+002
-6.7800000e+002
-6.8800000e+002
-6.8100000e+002
-6.8000000e+002
-6.8100000e+002
-6.7900000e+002
-6.7400000e+002
-6.7300000e+002
-6.7600000e+002
-6.8400000e+002
-6.8400000e+002
-6.7800000e+002
-6.8400000e+002
-6.8200000e+002
-6.8800000e+002
-6.8800000e+002
-6.9000000e+002
-6.9800000e+002
-6.9200000e+002
-6.9400000e+002
-6.9600000e+002
-6.8600000e+002
-6.9000000e+002
-6.8900000e+002
-6.8800000e+002
-6.9600000e+002
-6.9600000e+002
-6.9600000e+002
-6.9600000e+002
-6.9300000e+002
-6.9600000e+002
-7.0400000e+002
-7.0500000e+002
-7.1100000e+002
-7.0800000e+002
-7.1400000e+002
-7.1300000e+002
-7.0500000e+002
-7.0800000e+002
-7.0600000e+002
-7.0500000e+002
-7.0800000e+002
-7.1200000e+002
-7.0700000e+002
-7.0400000e+002
-7.0400000e+002
-7.0800000e+002
-7.1200000e+002
-7.1000000e+002
-7.2000000e+002
-7.1800000e+002
-7.1900000e+002
-7.1700000e+002
-7.1100000e+002
-7.1600000e+002
-7.1800000e+002
-7.2000000e+002
-7.3600000e+002
-7.3600000e+002
-7.3300000e+002
-7.3000000e+002
-7.1300000e+002
-7.0900000e+002
-7.0400000e+002
-6.9200000e+002
-6.9000000e+002
-6.7400000e+002
-6.7100000e+002
-6.7200000e+002
-6.5400000e+002
-6.4400000e+002
-6.4600000e+002
-6.5700000e+002
-6.6800000e+002
-6.5700000e+002
-6.3900000e+002
-6.3900000e+002
-6.5600000e+002
-7.0400000e+002
-7.2800000e+002
-7.4400000e+002
-7.6800000e+002
-7.7300000e+002
-7.6800000e+002
-7.4100000e+002
-7.0900000e+002
-7.0600000e+002
-7.1900000e+002
-7.4900000e+002
-7.8200000e+002
-8.1600000e+002
-8.3700000e+002
-8.3600000e+002
-8.1600000e+002
-7.8300000e+002
-7.7200000e+002
-7.6900000e+002
-7.6000000e+002
-7.6800000e+002
-7.6800000e+002
-7.7400000e+002
-7.8000000e+002
-7.8000000e+002
-7.7500000e+002
-7.6800000e+002
-7.7100000e+002
-7.7300000e+002
-7.7800000e+002
-7.7700000e+002
-7.7300000e+002
-7.7000000e+002
-7.5600000e+002
-7.5200000e+002
-7.6800000e+002
-7.6000000e+002
-7.5600000e+002
-7.5400000e+002
-7.5000000e+002
-7.6000000e+002
-7.5400000e+002
-7.5600000e+002
-7.6000000e+002
-7.4400000e+002
-7.1600000e+002
-6.4400000e+002
-4.8200000e+002
-2.4600000e+002
2.7000000e+001
3.6600000e+002
5.7200000e+002
6.9400000e+002
7.7000000e+002
9.2000000e+002
1.1740000e+003
1.2640000e+003
1.1020000e+003
7.4400000e+002
1.1600000e+002
-7.0100000e+002
-1.8360000e+003
-2.9880000e+003
-3.7690000e+003
-4.5500000e+003
-5.3310000e+003
-6.1120000e+003
-6.8930000e+003
-6.7290000e+003
-5.9780000e+003
-5.2270000e+003
-4.4760000e+003
-3.7250000e+003
-2.9740000e+003
-2.4200000e+003
-2.0320000e+003
-1.7680000e+003
-1.6130000e+003
-1.4640000e+003
-1.2280000e+003
-9.4800000e+002
-7.1000000e+002
-5.6800000e+002
-5.0900000e+002
-4.6000000e+002
-4.0800000e+002
-3.3600000e+002
-2.5500000e+002
-2.0700000e+002
-1.9800000e+002
-1.9200000e+002
-1.8600000e+002
-1.4800000e+002
-9.6000000e+001
-5.6000000e+001
-2.5000000e+001
-2.4000000e+001
-2.8000000e+001
-1.3000000e+001
2.2000000e+001
5.0000000e+001
7.1000000e+001
8.6000000e+001
1.0800000e+002
1.2400000e+002
1.5400000e+002
1.8200000e+002
2.0400000e+002
2.2800000e+002
2.4400000e+002
2.5500000e+002
2.8000000e+002
3.0200000e+002
3.2600000e+002
3.5600000e+002
3.7600000e+002
3.9800000e+002
4.2100000e+002
4.4400000e+002
4.8200000e+002
5.0800000e+002
5.4200000e+002
5.6800000e+002
5.9200000e+002
6.2800000e+002
6.5400000e+002
6.8500000e+002
7.2800000e+002
7.6800000e+002
8.0400000e+002
8.4000000e+002
8.7200000e+002
9.1000000e+002
9.4400000e+002
9.8000000e+002
1.0140000e+003
1.0420000e+003
1.0660000e+003
1.0870000e+003
1.0960000e+003
1.1120000e+003
1.1160000e+003
1.1200000e+003
1.1220000e+003
1.1160000e+003
1.1120000e+003
1.1000000e+003
1.0800000e+003
1.0600000e+003
1.0230000e+003
9.8400000e+002
9.4000000e+002
8.7600000e+002
8.2300000e+002
7.6800000e+002
6.9200000e+002
6.1600000e+002
5.4200000e+002
4.6600000e+002
3.9600000e+002
3.1600000e+002
2.5200000e+002
1.9200000e+002
1.2700000e+002
8.8000000e+001
4.2000000e+001
-3.1000000e+001
-7.4000000e+001
-1.2000000e+002
-1.6200000e+002
-1.9400000e+002
-2.3200000e+002
-2.6200000e+002
-2.9000000e+002
-3.0800000e+002
-3.2100000e+002
-3.4400000e+002
-3.6800000e+002
-3.8800000e+002
-4.0800000e+002
-4.2400000e+002
-4.5200000e+002
-4.7000000e+002
-4.8800000e+002
-5.0000000e+002
-4.9600000e+002
-4.9200000e+002
-4.9700000e+002
-5.0000000e+002
-5.0900000e+002
-5.1100000e+002
-5.1100000e+002
-5.2400000e+002
-5.3200000e+002
-5.4000000e+002
-5.5000000e+002
-5.4600000e+002
-5.4300000e+002
-5.4600000e+002
-5.5300000e+002
-5.6400000e+002
-5.7200000e+002
-5.6800000e+002
-5.7200000e+002
-5.6800000e+002
-5.7300000e+002
-5.7200000e+002
-5.6800000e+002
-5.7500000e+002
-5.7200000e+002
-5.6400000e+002
-5.6400000e+002
-5.5100000e+002
-5.4000000e+002
-5.3700000e+002
-5.2400000e+002
-5.3000000e+002
-5.3200000e+002
-5.3600000e+002
-5.4600000e+002
-5.4100000e+002
-5.3200000e+002
-5.2400000e+002
-5.0900000e+002
-5.0800000e+002
-5.0100000e+002
-4.9400000e+002
-4.9600000e+002
-4.8800000e+002
-4.8600000e+002
-4.8000000e+002
-4.7200000e+002
-4.7600000e+002
-4.8000000e+002
-4.7800000e+002
-4.8400000e+002
-4.9200000e+002
-5.0200000e+002
-5.0800000e+002
-5.0200000e+002
-5.0800000e+002
-5.0400000e+002
-5.0600000e+002
-5.1000000e+002
-5.1100000e+002
-5.1100000e+002
-5.0800000e+002
-5.0500000e+002
-5.2400000e+002
-5.3700000e+002
-5.4100000e+002
-5.4600000e+002
-5.5600000e+002
-5.6400000e+002
-5.7500000e+002
-5.7500000e+002
-5.8300000e+002
-5.8200000e+002
-5.8800000e+002
-5.9600000e+002
-6.0000000e+002
-6.0200000e+002
-6.1500000e+002
-6.1200000e+002
-6.2500000e+002
-6.2200000e+002
-6.2000000e+002
-6.3300000e+002
-6.3700000e+002
-6.3300000e+002
-6.3700000e+002
-6.3900000e+002
-6.4700000e+002
-6.3900000e+002
-6.3900000e+002
-6.4400000e+002
-6.3900000e+002
-6.5300000e+002
-6.5200000e+002
-6.5500000e+002
-6.6200000e+002
-6.5400000e+002
-6.6100000e+002
-6.6800000e+002
-6.6800000e+002
-6.6800000e+002
-6.7600000e+002
-6.7000000e+002
-6.7800000e+002
-6.6900000e+002
-6.6800000e+002
-6.7600000e+002
-6.7100000e+002
-6.7000000e+002
-6.7600000e+002
-6.7400000e+002
-6.8200000e+002
-6.9400000e+002
-6.9300000e+002
-7.0400000e+002
-7.0500000e+002
-7.0800000e+002
-7.1000000e+002
-7.0400000e+002
-7.0000000e+002
-7.0000000e+002
-7.0500000e+002
-7.0800000e+002
-7.1200000e+002
-7.1900000e+002
-7.1800000e+002
-7.1200000e+002
-7.1600000e+002
-7.0800000e+002
-7.0600000e+002
-7.1900000e+002
-7.2800000e+002
-7.3400000e+002
-7.3800000e+002
-7.4000000e+002
-7.4000000e+002
-7.3400000e+002
-7.3600000e+002
-7.4000000e+002
-7.2800000e+002
-7.1600000e+002
-7.0800000e+002
-6.9200000e+002
-6.9200000e+002
-6.9000000e+002
-6.9700000e+002
-7.1800000e+002
-7.2800000e+002
-7.3200000e+002
-7.4000000e+002
-7.2600000e+002
-7.2200000e+002
-7.1700000e+002
-7.2800000e+002
-7.2600000e+002
-7.2800000e+002
-7.3200000e+002
-7.4000000e+002
-7.3200000e+002
-7.3600000e+002
-7.3600000e+002
-7.4000000e+002
-7.5600000e+002
-7.5600000e+002
-7.5800000e+002
-7.5200000e+002
-7.4200000e+002
-7.4000000e+002
-7.3600000e+002
-7.3700000e+002
-7.3200000e+002
-7.1300000e+002
-7.0400000e+002
-6.9600000e+002
-6.9200000e+002
-6.8200000e+002
-6.7600000e+002
-6.7600000e+002
-6.9200000e+002
-6.9600000e+002
-7.0400000e+002
-6.8800000e+002
-6.7000000e+002
-6.7600000e+002
-6.9400000e+002
-7.2200000e+002
-7.5200000e+002
-7.6800000e+002
-7.8000000e+002
-7.9100000e+002
-7.6800000e+002
-7.4800000e+002
-7.2000000e+002
-7.2200000e+002
-7.5200000e+002
-7.8300000e+002
-8.1600000e+002
-8.4700000e+002
-8.5600000e+002
-8.4000000e+002
-8.0600000e+002
-7.7700000e+002
-7.7400000e+002
-7.6800000e+002
-7.5600000e+002
-7.6800000e+002
-7.6800000e+002
-7.8000000e+002
-7.9700000e+002
-8.0800000e+002
-8.1200000e+002
-8.0500000e+002
-8.0100000e+002
-7.9900000e+002
-7.8500000e+002
-7.9300000e+002
-7.8000000e+002
-7.7700000e+002
-7.9000000e+002
-7.9800000e+002
-8.0100000e+002
-7.9900000e+002
-7.9200000e+002
-7.9100000e+002
-7.9000000e+002
-7.8800000e+002
-7.8800000e+002
-7.9700000e+002
-7.9300000e+002
-7.6900000e+002
-7.1800000e+002
-6.2200000e+002
-4.3200000e+002
-1.7300000e+002
1.2600000e+002
4.4000000e+002
5.8800000e+002
6.7000000e+002
7.3600000e+002
9.2600000e+002
1.0840000e+003
1.0440000e+003
7.5200000e+002
2.3200000e+002
-5.0800000e+002
-1.4250000e+003
-2.6680000e+003
-3.7720000e+003
-4.8760000e+003
-5.9800000e+003
-7.0840000e+003
-7.3420000e+003
-6.6990000e+003
-6.0560000e+003
-5.4130000e+003
-4.7700000e+003
-4.1270000e+003
-3.4840000e+003
-2.8410000e+003
-2.3690000e+003
-2.0130000e+003
-1.7760000e+003
-1.6040000e+003
-1.4520000e+003
-1.2500000e+003
-1.0080000e+003
-8.0200000e+002
-6.5500000e+002
-5.5700000e+002
-4.8500000e+002
-4.1800000e+002
-3.6800000e+002
-3.1000000e+002
-2.6400000e+002
-2.4800000e+002
-2.4000000e+002
-2.2100000e+002
-1.8400000e+002
-1.3700000e+002
-1.0800000e+002
-9.2000000e+001
-7.8000000e+001
-8.0000000e+001
-6.3000000e+001
-5.2000000e+001
-3.7000000e+001
-1.6000000e+001
2.1000000e+001
3.1000000e+001
4.6000000e+001
6.8000000e+001
9.4000000e+001
1.1600000e+002
1.3600000e+002
1.6700000e+002
1.7600000e+002
1.9600000e+002
2.2000000e+002
2.3800000e+002
2.6600000e+002
2.9600000e+002
3.2900000e+002
3.6400000e+002
3.8400000e+002
4.1300000e+002
4.4800000e+002
4.7000000e+002
4.9600000e+002
5.1100000e+002
5.4800000e+002
5.8800000e+002
6.2200000e+002
6.6000000e+002
6.9400000e+002
7.2400000e+002
7.6800000e+002
8.0800000e+002
8.4700000e+002
8.8800000e+002
9.2200000e+002
9.6000000e+002
9.8800000e+002
9.9800000e+002
1.0220000e+003
1.0440000e+003
1.0480000e+003
1.0620000e+003
1.0680000e+003
1.0720000e+003
1.0700000e+003
1.0490000e+003
1.0230000e+003
1.0040000e+003
9.7300000e+002
9.4000000e+002
8.9800000e+002
8.4700000e+002
8.0200000e+002
7.4800000e+002
6.7800000e+002
6.0400000e+002
5.2000000e+002
4.5300000e+002
3.7400000e+002
3.0000000e+002
2.3800000e+002
1.7400000e+002
1.1600000e+002
6.6000000e+001
1.7000000e+001
-4.4000000e+001
-8.8000000e+001
-1.3300000e+002
-1.7700000e+002
-2.2400000e+002
-2.5500000e+002
-2.9600000e+002
-3.2900000e+002
-3.5600000e+002
-3.8400000e+002
-4.0500000e+002
-4.2800000e+002
-4.5800000e+002
-4.8000000e+002
-4.9600000e+002
-5.2000000e+002
-5.2600000e+002
-5.3600000e+002
-5.3600000e+002
-5.3600000e+002
-5.5600000e+002
-5.6800000e+002
-5.8000000e+002
-5.9600000e+002
-5.9600000e+002
-6.1400000e+002
-6.2500000e+002
-6.2600000e+002
-6.2400000e+002
-6.2600000e+002
-6.2400000e+002
-6.2100000e+002
-6.2500000e+002
-6.3200000e+002
-6.3000000e+002
-6.3800000e+002
-6.6200000e+002
-6.5600000e+002
-6.5500000e+002
-6.5500000e+002
-6.5500000e+002
-6.5700000e+002
-6.5800000e+002
-6.6200000e+002
-6.7100000e+002
-6.6400000e+002
-6.7000000e+002
-6.6200000e+002
-6.5000000e+002
-6.3900000e+002
-6.3700000e+002
-6.3200000e+002
-6.3800000e+002
-6.2800000e+002
-6.3200000e+002
-6.2800000e+002
-6.2400000e+002
-6.2500000e+002
-6.1600000e+002
-6.0800000e+002
-6.0600000e+002
-5.9600000e+002
-6.0400000e+002
-6.0800000e+002
-6.0800000e+002
-6.1200000e+002
-6.1000000e+002
-6.0800000e+002
-6.1000000e+002
-6.0400000e+002
-6.0000000e+002
-5.9600000e+002
-5.9900000e+002
-6.1200000e+002
-6.1200000e+002
-6.1400000e+002
-6.2000000e+002
-6.2200000e+002
-6.3200000e+002
-6.3600000e+002
-6.3200000e+002
-6.3900000e+002
-6.4400000e+002
-6.4900000e+002
-6.6400000e+002
-6.6400000e+002
-6.6800000e+002
-6.7800000e+002
-6.8000000e+002
-6.8000000e+002
-6.8400000e+002
-6.8800000e+002
-7.0400000e+002
-7.0400000e+002
-7.1300000e+002
-7.1700000e+002
-7.1600000e+002
-7.2800000e+002
-7.4100000e+002
-7.4800000e+002
-7.6000000e+002
-7.6800000e+002
-7.7600000e+002
-7.7700000e+002
-7.7700000e+002
-7.7400000e+002
-7.7200000e+002
-7.7200000e+002
-7.7500000e+002
-7.7500000e+002
-7.8000000e+002
-7.8300000e+002
-7.8000000e+002
-7.8400000e+002
-7.8000000e+002
-7.8200000e+002
-7.9300000e+002
-7.9800000e+002
-8.0700000e+002
-8.0400000e+002
-7.9300000e+002
-7.9200000e+002
-7.9200000e+002
-7.9200000e+002
-7.9600000e+002
-8.0400000e+002
-8.1600000e+002
-8.1900000e+002
-8.1600000e+002
-8.2200000e+002
-8.2400000e+002
-8.2000000e+002
-8.1800000e+002
-8.1600000e+002
-8.2400000e+002
-8.2400000e+002
-8.1200000e+002
-8.1200000e+002
-8.2000000e+002
-8.2400000e+002
-8.3300000e+002
-8.2500000e+002
-8.2800000e+002
-8.2500000e+002
-8.1200000e+002
-8.1600000e+002
-8.2000000e+002
-8.1800000e+002
-8.3100000e+002
-8.2800000e+002
-8.3000000e+002
-8.3300000e+002
-8.2500000e+002
-8.1800000e+002
-8.2100000e+002
-8.1600000e+002
-8.2400000e+002
-8.2600000e+002
-8.3600000e+002
-8.3900000e+002
-8.4000000e+002
-8.4700000e+002
-8.4600000e+002
-8.4900000e+002
-8.5200000e+002
-8.5300000e+002
-8.5300000e+002
-8.5000000e+002
-8.4200000e+002
-8.4900000e+002
-8.5000000e+002
-8.4400000e+002
-8.4000000e+002
-8.4600000e+002
-8.4600000e+002
-8.5000000e+002
-8.4600000e+002
-8.4200000e+002
-8.3500000e+002
-8.3800000e+002
-8.4100000e+002
-8.4000000e+002
-8.4500000e+002
-8.4700000e+002
-8.4500000e+002
-8.4900000e+002
-8.5400000e+002
-8.5500000e+002
-8.5200000e+002
-8.5000000e+002
-8.4800000e+002
-8.4800000e+002
-8.4800000e+002
-8.4100000e+002
-8.3600000e+002
-8.4700000e+002
-8.5800000e+002
-8.4900000e+002
-8.3600000e+002
-8.2500000e+002
-8.1200000e+002
-8.0800000e+002
-7.8500000e+002
-7.7500000e+002
-7.8800000e+002
-7.9200000e+002
-7.9600000e+002
-7.9400000e+002
-7.7600000e+002
-7.7600000e+002
-7.9700000e+002
-8.4000000e+002
-8.7600000e+002
-8.8200000e+002
-8.9800000e+002
-9.1500000e+002
-8.9600000e+002
-8.7000000e+002
-8.4100000e+002
-8.3300000e+002
-8.5300000e+002
-8.7600000e+002
-9.0200000e+002
-9.3600000e+002
-9.5600000e+002
-9.6000000e+002
-9.4600000e+002
-9.1800000e+002
-9.1600000e+002
-9.0500000e+002
-8.9600000e+002
-8.8600000e+002
-8.8000000e+002
-8.9600000e+002
-9.1000000e+002
-9.1600000e+002
-9.2000000e+002
-9.2000000e+002
-9.2500000e+002
-9.2000000e+002
-9.1600000e+002
-9.2100000e+002
-9.1600000e+002
-9.1600000e+002
-9.2100000e+002
-9.1400000e+002
-9.1200000e+002
-9.1400000e+002
-9.0300000e+002
-8.9600000e+002
-8.8700000e+002
-8.8900000e+002
-9.0200000e+002
-9.0400000e+002
-9.0000000e+002
-8.8900000e+002
-8.4600000e+002
-7.5000000e+002
-5.7500000e+002
-3.1900000e+002
-6.5000000e+001
2.8000000e+002
4.6300000e+002
5.5800000e+002
6.3800000e+002
7.9900000e+002
9.9800000e+002
9.8300000e+002
6.9200000e+002
2.4400000e+002
-4.6800000e+002
-1.3820000e+003
-2.5850000e+003
-3.6990000e+003
-4.8130000e+003
-5.9270000e+003
-7.0410000e+003
-8.0070000e+003
-7.3140000e+003
-6.6210000e+003
-5.9280000e+003
-5.2350000e+003
-4.5420000e+003
-3.8490000e+003
-3.1560000e+003
-2.6120000e+003
-2.1930000e+003
-1.8960000e+003
-1.7120000e+003
-1.5640000e+003
-1.3620000e+003
-1.1120000e+003
-8.8900000e+002
-7.3800000e+002
-6.5400000e+002
-5.8800000e+002
-5.2700000e+002
-4.7200000e+002
-4.0100000e+002
-3.5300000e+002
-3.3000000e+002
-3.1600000e+002
-3.0400000e+002
-2.7600000e+002
-2.3600000e+002
-1.9600000e+002
-1.6800000e+002
-1.5800000e+002
-1.5800000e+002
-1.4200000e+002
-1.2000000e+002
-9.6000000e+001
-7.2000000e+001
-5.6000000e+001
-3.3000000e+001
-1.2000000e+001
2.2000000e+001
5.4000000e+001
7.9000000e+001
9.6000000e+001
1.2400000e+002
1.3600000e+002
1.5800000e+002
1.8200000e+002
2.0600000e+002
2.3600000e+002
2.5500000e+002
2.8400000e+002
3.1800000e+002
3.4000000e+002
3.6400000e+002
3.9200000e+002
4.2000000e+002
4.5600000e+002
4.9200000e+002
5.3000000e+002
5.7800000e+002
6.0800000e+002
6.4800000e+002
6.8400000e+002
7.1600000e+002
7.5800000e+002
7.9900000e+002
8.4100000e+002
8.9600000e+002
9.3600000e+002
9.7600000e+002
1.0100000e+003
1.0400000e+003
1.0700000e+003
1.0920000e+003
1.1120000e+003
1.1250000e+003
1.1380000e+003
1.1440000e+003
1.1440000e+003
1.1340000e+003
1.1210000e+003
1.1000000e+003
1.0760000e+003
1.0520000e+003
1.0080000e+003
9.6000000e+002
9.0200000e+002
8.3600000e+002
7.6800000e+002
6.8500000e+002
5.9400000e+002
5.1000000e+002
4.1500000e+002
3.2800000e+002
2.4400000e+002
1.5800000e+002
9.2000000e+001
2.4000000e+001
-5.6000000e+001
-1.0400000e+002
-1.5400000e+002
-2.0000000e+002
-2.4600000e+002
-2.9600000e+002
-3.4000000e+002
-3.8400000e+002
-4.1500000e+002
-4.4200000e+002
-4.7200000e+002
-4.8900000e+002
-5.1100000e+002
-5.4600000e+002
-5.6400000e+002
-5.7800000e+002
-5.9600000e+002
-6.0400000e+002
-6.2000000e+002
-6.2800000e+002
-6.3000000e+002
-6.3800000e+002
-6.4400000e+002
-6.5500000e+002
-6.7000000e+002
-6.6900000e+002
-6.8200000e+002
-6.8200000e+002
-6.9600000e+002
-7.0400000e+002
-7.0000000e+002
-7.0000000e+002
-7.0000000e+002
-7.0400000e+002
-7.0800000e+002
-7.1200000e+002
-7.1600000e+002
-7.2000000e+002
-7.1600000e+002
-7.1600000e+002
-7.2900000e+002
-7.2800000e+002
-7.3600000e+002
-7.4000000e+002
-7.4800000e+002
-7.5400000e+002
-7.5000000e+002
-7.5200000e+002
-7.4800000e+002
-7.3600000e+002
-7.3200000e+002
-7.2600000e+002
-7.1700000e+002
-7.1900000e+002
-7.0800000e+002
-7.0600000e+002
-7.0400000e+002
-6.9200000e+002
-6.9200000e+002
-6.8600000e+002
-6.8000000e+002
-6.8200000e+002
-6.7800000e+002
-6.8000000e+002
-6.7700000e+002
-6.6800000e+002
-6.7400000e+002
-6.6800000e+002
-6.6200000e+002
-6.6800000e+002
-6.6200000e+002
-6.6800000e+002
-6.7100000e+002
-6.6500000e+002
-6.6200000e+002
-6.6200000e+002
-6.6500000e+002
-6.7600000e+002
-6.7000000e+002
-6.6800000e+002
-6.6800000e+002
-6.6400000e+002
-6.7000000e+002
-6.7600000e+002
-6.7600000e+002
-6.8200000e+002
-6.8100000e+002
-6.9200000e+002
-6.9600000e+002
-6.9600000e+002
-7.0600000e+002
-7.1100000e+002
-7.1200000e+002
-7.2200000e+002
-7.2100000e+002
-7.2600000e+002
-7.2800000e+002
-7.3600000e+002
-7.4800000e+002
-7.5400000e+002
-7.6800000e+002
-7.8000000e+002
-7.8200000e+002
-7.8500000e+002
-7.8800000e+002
-7.8800000e+002
-7.9200000e+002
-7.9600000e+002
-8.0600000e+002
-8.1600000e+002
-8.2000000e+002
-8.2600000e+002
-8.2800000e+002
-8.2800000e+002
-8.3800000e+002
-8.4000000e+002
-8.3800000e+002
-8.4100000e+002
-8.4000000e+002
-8.4000000e+002
-8.3900000e+002
-8.3700000e+002
-8.4400000e+002
-8.3800000e+002
-8.3400000e+002
-8.3900000e+002
-8.3600000e+002
-8.4000000e+002
-8.3900000e+002
-8.3800000e+002
-8.4400000e+002
-8.4600000e+002
-8.4700000e+002
-8.5400000e+002
-8.5600000e+002
-8.6000000e+002
-8.5600000e+002
-8.5300000e+002
-8.5800000e+002
-8.5700000e+002
-8.5200000e+002
-8.4900000e+002
-8.5000000e+002
-8.5500000e+002
-8.5600000e+002
-8.5200000e+002
-8.5400000e+002
-8.5600000e+002
-8.6100000e+002
-8.6800000e+002
-8.6400000e+002
-8.6500000e+002
-8.6800000e+002
-8.6800000e+002
-8.8000000e+002
-8.7800000e+002
-8.8000000e+002
-8.8800000e+002
-8.8500000e+002
-8.8100000e+002
-8.7800000e+002
-8.7300000e+002
-8.7800000e+002
-8.7500000e+002
-8.7600000e+002
-8.8000000e+002
-8.7700000e+002
-8.7600000e+002
-8.7700000e+002
-8.6800000e+002
-8.7200000e+002
-8.8000000e+002
-8.8600000e+002
-8.9600000e+002
-8.9600000e+002
-9.0100000e+002
-8.9700000e+002
-8.9600000e+002
-8.9600000e+002
-8.9600000e+002
-8.8800000e+002
-8.9600000e+002
-9.0000000e+002
-9.0300000e+002
-9.0100000e+002
-8.9600000e+002
-9.0100000e+002
-9.0400000e+002
-9.0300000e+002
-9.0900000e+002
-9.0600000e+002
-9.0600000e+002
-9.1000000e+002
-9.0800000e+002
-9.0800000e+002
-9.0400000e+002
-9.0600000e+002
-9.1200000e+002
-9.0300000e+002
-9.0900000e+002
-9.0800000e+002
-8.9600000e+002
-8.9700000e+002
-8.9600000e+002
-8.9600000e+002
-9.0400000e+002
-9.0300000e+002
-8.9800000e+002
-8.9900000e+002
-8.9600000e+002
-8.8600000e+002
-8.7400000e+002
-8.6600000e+002
-8.5600000e+002
-8.4600000e+002
-8.4400000e+002
-8.2400000e+002
-8.2000000e+002
-8.3000000e+002
-8.3100000e+002
-8.3700000e+002
-8.3000000e+002
-8.1600000e+002
-8.2900000e+002
-8.6400000e+002
-9.0000000e+002
-9.3600000e+002
-9.4000000e+002
-9.5100000e+002
-9.6100000e+002
-9.5200000e+002
-9.2100000e+002
-8.9600000e+002
-8.8800000e+002
-9.1300000e+002
-9.4200000e+002
-9.7200000e+002
-1.0080000e+003
-1.0230000e+003
-1.0160000e+003
-1.0050000e+003
-9.7400000e+002
-9.7400000e+002
-9.6000000e+002
-9.5200000e+002
-9.6200000e+002
-9.6900000e+002
-9.7700000e+002
-9.9200000e+002
-9.9200000e+002
-9.9900000e+002
-9.9400000e+002
-9.9200000e+002
-1.0000000e+003
-1.0010000e+003
-1.0080000e+003
-1.0010000e+003
-9.9200000e+002
-9.9300000e+002
-9.9900000e+002
-9.9900000e+002
-1.0090000e+003
-1.0090000e+003
-1.0120000e+003
-1.0010000e+003
-9.8800000e+002
-9.8900000e+002
-9.8400000e+002
-9.8200000e+002
-9.7800000e+002
-9.4600000e+002
-8.7100000e+002
-7.1200000e+002
-4.7600000e+002
-2.2000000e+002
1.1800000e+002
3.1300000e+002
4.1500000e+002
5.0000000e+002
6.7600000e+002
9.3400000e+002
9.5400000e+002
6.9400000e+002
3.3400000e+002
-3.3200000e+002
-1.2440000e+003
-2.3640000e+003
-3.4070000e+003
-4.4500000e+003
-5.4930000e+003
-6.5360000e+003
-7.5790000e+003
-7.6770000e+003
-6.9490000e+003
-6.2210000e+003
-5.4930000e+003
-4.7650000e+003
-4.0370000e+003
-3.3090000e+003
-2.7240000e+003
-2.2850000e+003
-1.9980000e+003
-1.8360000e+003
-1.6890000e+003
-1.4570000e+003
-1.1760000e+003
-9.4200000e+002
-8.0800000e+002
-7.4400000e+002
-7.1100000e+002
-6.5600000e+002
-5.7200000e+002
-4.9300000e+002
-4.4000000e+002
-4.2800000e+002
-4.2800000e+002
-4.1200000e+002
-3.8600000e+002
-3.3200000e+002
-2.9700000e+002
-2.7600000e+002
-2.5500000e+002
-2.5400000e+002
-2.4600000e+002
-2.2400000e+002
-2.0000000e+002
-1.7600000e+002
-1.5800000e+002
-1.4500000e+002
-1.2700000e+002
-1.0600000e+002
-7.8000000e+001
-4.2000000e+001
-2.9000000e+001
-1.3000000e+001
1.6000000e+001
3.9000000e+001
7.0000000e+001
8.6000000e+001
1.1400000e+002
1.4200000e+002
1.5800000e+002
1.8800000e+002
2.1200000e+002
2.4400000e+002
2.8400000e+002
3.1800000e+002
3.5000000e+002
3.8400000e+002
4.0800000e+002
4.5400000e+002
4.9200000e+002
5.3200000e+002
5.8000000e+002
6.2000000e+002
6.6000000e+002
7.0400000e+002
7.3800000e+002
7.8400000e+002
8.2500000e+002
8.6800000e+002
9.0600000e+002
9.3700000e+002
9.6800000e+002
9.9200000e+002
1.0080000e+003
1.0230000e+003
1.0400000e+003
1.0460000e+003
1.0530000e+003
1.0440000e+003
1.0360000e+003
1.0200000e+003
9.8600000e+002
9.6000000e+002
9.2000000e+002
8.6400000e+002
8.0700000e+002
7.3800000e+002
6.6000000e+002
5.7500000e+002
4.8400000e+002
3.9400000e+002
3.0600000e+002
2.1400000e+002
1.2700000e+002
4.4000000e+001
-4.4000000e+001
-1.1200000e+002
-1.8400000e+002
-2.3600000e+002
-2.8500000e+002
-3.2800000e+002
-3.6900000e+002
-4.1300000e+002
-4.4800000e+002
-4.8800000e+002
-5.2900000e+002
-5.6000000e+002
-5.8300000e+002
-6.0900000e+002
-6.2500000e+002
-6.5200000e+002
-6.6600000e+002
-6.8200000e+002
-6.9600000e+002
-7.0400000e+002
-7.1700000e+002
-7.2800000e+002
-7.2800000e+002
-7.3600000e+002
-7.4200000e+002
-7.5200000e+002
-7.6800000e+002
-7.7000000e+002
-7.7600000e+002
-7.7600000e+002
-7.7100000e+002
-7.7700000e+002
-7.7600000e+002
-7.7700000e+002
-7.8500000e+002
-7.8400000e+002
-7.9400000e+002
-7.9800000e+002
-7.9400000e+002
-8.0100000e+002
-8.0400000e+002
-8.0500000e+002
-8.1100000e+002
-8.0900000e+002
-8.1600000e+002
-8.2200000e+002
-8.1700000e+002
-8.2200000e+002
-8.2400000e+002
-8.1600000e+002
-8.1400000e+002
-8.1200000e+002
-8.0800000e+002
-8.0000000e+002
-7.9200000e+002
-7.9000000e+002
-7.8500000e+002
-7.8000000e+002
-7.8000000e+002
-7.7600000e+002
-7.7600000e+002
-7.7700000e+002
-7.7200000e+002
-7.6800000e+002
-7.6800000e+002
-7.6000000e+002
-7.5800000e+002
-7.5200000e+002
-7.5000000e+002
-7.4800000e+002
-7.4300000e+002
-7.4500000e+002
-7.4300000e+002
-7.4500000e+002
-7.4800000e+002
-7.4800000e+002
-7.5200000e+002
-7.5200000e+002
-7.4800000e+002
-7.5400000e+002
-7.6000000e+002
-7.6900000e+002
-7.7600000e+002
-7.7700000e+002
-7.8300000e+002
-7.8900000e+002
-7.8500000e+002
-7.9900000e+002
-7.9800000e+002
-8.0100000e+002
-8.1600000e+002
-8.1600000e+002
-8.2400000e+002
-8.2400000e+002
-8.2400000e+002
-8.3600000e+002
-8.4000000e+002
-8.4500000e+002
-8.6000000e+002
-8.6400000e+002
-8.6900000e+002
-8.7000000e+002
-8.7100000e+002
-8.7800000e+002
-8.8000000e+002
-8.8200000e+002
-8.9700000e+002
-9.0000000e+002
-9.0300000e+002
-9.0600000e+002
-9.0200000e+002
-9.0500000e+002
-9.0300000e+002
-9.0600000e+002
-9.2000000e+002
-9.2400000e+002
-9.2700000e+002
-9.3000000e+002
-9.2400000e+002
-9.2600000e+002
-9.2400000e+002
-9.2600000e+002
-9.3200000e+002
-9.2600000e+002
-9.3600000e+002
-9.4200000e+002
-9.3600000e+002
-9.4000000e+002
-9.4400000e+002
-9.4800000e+002
-9.5600000e+002
-9.5400000e+002
-9.5100000e+002
-9.4900000e+002
-9.4800000e+002
-9.5000000e+002
-9.4900000e+002
-9.4900000e+002
-9.5600000e+002
-9.6000000e+002
-9.6000000e+002
-9.6000000e+002
-9.5600000e+002
-9.6000000e+002
-9.5200000e+002
-9.5200000e+002
-9.6000000e+002
-9.6000000e+002
-9.6100000e+002
-9.5600000e+002
-9.6000000e+002
-9.5600000e+002
-9.5400000e+002
-9.5400000e+002
-9.6100000e+002
-9.6000000e+002
-9.6000000e+002
-9.5200000e+002
-9.4900000e+002
-9.5000000e+002
-9.4800000e+002
-9.4800000e+002
-9.5600000e+002
-9.5200000e+002
-9.5200000e+002
-9.6000000e+002
-9.5300000e+002
-9.5200000e+002
-9.5200000e+002
-9.5100000e+002
-9.6400000e+002
-9.6800000e+002
-9.7600000e+002
-9.7800000e+002
-9.7300000e+002
-9.7300000e+002
-9.7000000e+002
-9.7000000e+002
-9.7200000e+002
-9.6400000e+002
-9.6800000e+002
-9.7000000e+002
-9.6700000e+002
-9.7000000e+002
-9.6800000e+002
-9.6900000e+002
-9.8100000e+002
-9.7200000e+002
-9.7500000e+002
-9.6800000e+002
-9.6500000e+002
-9.7200000e+002
-9.6600000e+002
-9.6400000e+002
-9.7500000e+002
-9.7000000e+002
-9.7300000e+002
-9.7600000e+002
-9.7400000e+002
-9.7700000e+002
-9.7400000e+002
-9.7900000e+002
-9.8200000e+002
-9.7600000e+002
-9.7300000e+002
-9.8000000e+002
-9.7200000e+002
-9.7000000e+002
-9.7400000e+002
-9.7800000e+002
-9.8500000e+002
-9.7800000e+002
-9.7700000e+002
-9.7300000e+002
-9.6200000e+002
-9.6800000e+002
-9.6900000e+002
-9.6000000e+002
-9.5600000e+002
-9.3800000e+002
-9.3200000e+002
-9.2700000e+002
-9.0800000e+002
-8.9700000e+002
-9.0400000e+002
-9.1400000e+002
-9.2700000e+002
-9.1600000e+002
-9.0800000e+002
-9.0300000e+002
-9.1100000e+002
-9.6000000e+002
-9.8800000e+002
-1.0000000e+003
-1.0230000e+003
-1.0230000e+003
-1.0230000e+003
-1.0080000e+003
-9.7800000e+002
-9.7600000e+002
-9.8600000e+002
-1.0220000e+003
-1.0540000e+003
-1.0800000e+003
-1.1000000e+003
-1.0950000e+003
-1.0760000e+003
-1.0440000e+003
-1.0230000e+003
-1.0200000e+003
-1.0200000e+003
-1.0120000e+003
-1.0230000e+003
-1.0230000e+003
-1.0330000e+003
-1.0440000e+003
-1.0410000e+003
-1.0370000e+003
-1.0380000e+003
-1.0390000e+003
-1.0420000e+003
-1.0440000e+003
-1.0310000e+003
-1.0230000e+003
-1.0200000e+003
-1.0220000e+003
-1.0230000e+003
-1.0230000e+003
-1.0230000e+003
-1.0180000e+003
-1.0120000e+003
-1.0130000e+003
-1.0120000e+003
-1.0160000e+003
-1.0230000e+003
-1.0200000e+003
-9.9700000e+002
-9.4400000e+002
-8.2500000e+002
-6.3600000e+002
-3.7400000e+002
-6.9000000e+001
2.2000000e+002
3.8400000e+002
4.8000000e+002
5.8600000e+002
8.6600000e+002
1.0230000e+003
9.5000000e+002
6.5400000e+002
1.1200000e+002
-6.8100000e+002
-1.6880000e+003
-2.8700000e+003
-3.8440000e+003
-4.8180000e+003
-5.7920000e+003
-6.7660000e+003
-7.6780000e+003
-7.0080000e+003
-6.3380000e+003
-5.6680000e+003
-4.9980000e+003
-4.3280000e+003
-3.6580000e+003
-2.9880000e+003
-2.4820000e+003
-2.1300000e+003
-1.9200000e+003
-1.7840000e+003
-1.5970000e+003
-1.3200000e+003
-1.0410000e+003
-8.6400000e+002
-7.8100000e+002
-7.3600000e+002
-6.9600000e+002
-6.1700000e+002
-5.2500000e+002
-4.6000000e+002
-4.2900000e+002
-4.3100000e+002
-4.3800000e+002
-4.1200000e+002
-3.6900000e+002
-3.1900000e+002
-2.8000000e+002
-2.6800000e+002
-2.6400000e+002
-2.5500000e+002
-2.4400000e+002
-2.1000000e+002
-1.7800000e+002
-1.5200000e+002
-1.3400000e+002
-1.2700000e+002
-1.0800000e+002
-8.8000000e+001
-6.5000000e+001
-4.0000000e+001
-2.8000000e+001
1.2000000e+001
3.7000000e+001
5.4000000e+001
7.6000000e+001
1.0300000e+002
1.2400000e+002
1.5000000e+002
1.7200000e+002
1.9800000e+002
2.3200000e+002
2.6800000e+002
3.0200000e+002
3.3300000e+002
3.5800000e+002
4.0000000e+002
4.3200000e+002
4.7000000e+002
5.1100000e+002
5.5600000e+002
5.9700000e+002
6.3200000e+002
6.6100000e+002
7.0800000e+002
7.4800000e+002
7.9200000e+002
8.2800000e+002
8.6000000e+002
8.9000000e+002
9.1600000e+002
9.3500000e+002
9.5300000e+002
9.6400000e+002
9.7400000e+002
9.8400000e+002
9.9200000e+002
9.9000000e+002
9.8300000e+002
9.6600000e+002
9.5100000e+002
9.2100000e+002
8.8400000e+002
8.4100000e+002
7.9100000e+002
7.3200000e+002
6.6000000e+002
5.8200000e+002
5.0400000e+002
4.2000000e+002
3.2600000e+002
2.4000000e+002
1.4800000e+002
6.9000000e+001
-2.5000000e+001
-9.8000000e+001
-1.5700000e+002
-2.1600000e+002
-2.7200000e+002
-3.1900000e+002
-3.6800000e+002
-4.0800000e+002
-4.4400000e+002
-4.8400000e+002
-5.0800000e+002
-5.3800000e+002
-5.6400000e+002
-5.8200000e+002
-6.0800000e+002
-6.2500000e+002
-6.3900000e+002
-6.6400000e+002
-6.7600000e+002
-6.9400000e+002
-7.0400000e+002
-7.0800000e+002
-7.2500000e+002
-7.3600000e+002
-7.4300000e+002
-7.5600000e+002
-7.5400000e+002
-7.6800000e+002
-7.6800000e+002
-7.6800000e+002
-7.7200000e+002
-7.7600000e+002
-7.8800000e+002
-7.9900000e+002
-7.9600000e+002
-8.0400000e+002
-8.1200000e+002
-8.0700000e+002
-8.1900000e+002
-8.1400000e+002
-8.3100000e+002
-8.4100000e+002
-8.3900000e+002
-8.5000000e+002
-8.4400000e+002
-8.3600000e+002
-8.3800000e+002
-8.3800000e+002
-8.3400000e+002
-8.3800000e+002
-8.2900000e+002
-8.3100000e+002
-8.2800000e+002
-8.2000000e+002
-8.1500000e+002
-8.0700000e+002
-8.0700000e+002
-8.0100000e+002
-7.9800000e+002
-7.8600000e+002
-7.8300000e+002
-7.7000000e+002
-7.6800000e+002
-7.6800000e+002
-7.5600000e+002
-7.6800000e+002
-7.6800000e+002
-7.7500000e+002
-7.7800000e+002
-7.6800000e+002
-7.7400000e+002
-7.7300000e+002
-7.7600000e+002
-7.8000000e+002
-7.7600000e+002
-7.7500000e+002
-7.7500000e+002
-7.7000000e+002
-7.7400000e+002
-7.6800000e+002
-7.6800000e+002
-7.7600000e+002
-7.7500000e+002
-7.8300000e+002
-7.8500000e+002
-7.8300000e+002
-7.8700000e+002
-7.8500000e+002
-7.9100000e+002
-7.9800000e+002
-7.9700000e+002
-8.0400000e+002
-8.1400000e+002
-8.1400000e+002
-8.1700000e+002
-8.2100000e+002
-8.3100000e+002
-8.4400000e+002
-8.3800000e+002
-8.4400000e+002
-8.4700000e+002
-8.4200000e+002
-8.4100000e+002
-8.4400000e+002
-8.5200000e+002
-8.7100000e+002
-8.7800000e+002
-8.8800000e+002
-8.8500000e+002
-8.8000000e+002
-8.8800000e+002
-8.8600000e+002
-8.7800000e+002
-8.8400000e+002
-8.7700000e+002
-8.8600000e+002
-8.9600000e+002
-8.8800000e+002
-8.9600000e+002
-8.9800000e+002
-9.0800000e+002
-9.1800000e+002
-9.1600000e+002
-9.1900000e+002
-9.1400000e+002
-8.9800000e+002
-9.0300000e+002
-9.0000000e+002
-9.0300000e+002
-9.0500000e+002
-9.1100000e+002
-9.2400000e+002
-9.3600000e+002
-9.3500000e+002
-9.3300000e+002
-9.2400000e+002
-9.2500000e+002
-9.2400000e+002
-9.2500000e+002
-9.2700000e+002
-9.2600000e+002
-9.2400000e+002
-9.3200000e+002
-9.3500000e+002
-9.3500000e+002
-9.3200000e+002
-9.2600000e+002
-9.3200000e+002
-9.3600000e+002
-9.3200000e+002
-9.4000000e+002
-9.4000000e+002
-9.3600000e+002
-9.4000000e+002
-9.4000000e+002
-9.4200000e+002
-9.3600000e+002
-9.3300000e+002
-9.3500000e+002
-9.4000000e+002
-9.4000000e+002
-9.5000000e+002
-9.4100000e+002
-9.3300000e+002
-9.3400000e+002
-9.2600000e+002
-9.2700000e+002
-9.2700000e+002
-9.2600000e+002
-9.3400000e+002
-9.3200000e+002
-9.3400000e+002
-9.4000000e+002
-9.3700000e+002
-9.4400000e+002
-9.5000000e+002
-9.5600000e+002
-9.6400000e+002
-9.6000000e+002
-9.6000000e+002
-9.5600000e+002
-9.5000000e+002
-9.6000000e+002
-9.6000000e+002
-9.6400000e+002
-9.7200000e+002
-9.6700000e+002
-9.6600000e+002
-9.6400000e+002
-9.4900000e+002
-9.5100000e+002
-9.5300000e+002
-9.6100000e+002
-9.6100000e+002
-9.5300000e+002
-9.5000000e+002
-9.5000000e+002
-9.4400000e+002
-9.4500000e+002
-9.4600000e+002
-9.5300000e+002
-9.6200000e+002
-9.6000000e+002
-9.6700000e+002
-9.7200000e+002
-9.6000000e+002
-9.5300000e+002
-9.5200000e+002
-9.5600000e+002
-9.5300000e+002
-9.4000000e+002
-9.4500000e+002
-9.4200000e+002
-9.3300000e+002
-9.2200000e+002
-9.1600000e+002
-9.0400000e+002
-9.0500000e+002
-9.0300000e+002
-8.8900000e+002
-8.8800000e+002
-9.0000000e+002
-9.0800000e+002
-9.0600000e+002
-9.0100000e+002
-8.8200000e+002
-8.7800000e+002
-9.0000000e+002
-9.4000000e+002
-9.6000000e+002
-9.7600000e+002
-9.8900000e+002
-1.0000000e+003
-9.9200000e+002
-9.6100000e+002
-9.4400000e+002
-9.2800000e+002
-9.3100000e+002
-9.6100000e+002
-9.8000000e+002
-1.0010000e+003
-1.0300000e+003
-1.0200000e+003
-1.0090000e+003
-9.7000000e+002
-9.6400000e+002
-9.6800000e+002
-9.5400000e+002
-9.6000000e+002
-9.7300000e+002
-9.9200000e+002
-1.0020000e+003
-1.0040000e+003
-9.9800000e+002
-9.8400000e+002
-9.8000000e+002
-9.8200000e+002
-9.8500000e+002
-9.7800000e+002
-9.8000000e+002
-9.7700000e+002
-9.6700000e+002
-9.6700000e+002
-9.6200000e+002
-9.6000000e+002
-9.7500000e+002
-9.7200000e+002
-9.7300000e+002
-9.7000000e+002
-9.4800000e+002
-9.5200000e+002
-9.4900000e+002
-9.3300000e+002
-9.0000000e+002
-8.1600000e+002
-6.6400000e+002
-4.4000000e+002
-1.6700000e+002
1.9600000e+002
4.2000000e+002
5.2600000e+002
5.8600000e+002
7.2000000e+002
9.2600000e+002
1.0040000e+003
7.9000000e+002
3.8900000e+002
-2.5500000e+002
-1.0650000e+003
-2.2150000e+003
-3.4090000e+003
-4.6030000e+003
-5.7970000e+003
-6.9910000e+003
-8.1850000e+003
-7.5560000e+003
-6.8280000e+003
-6.1000000e+003
-5.3720000e+003
-4.6440000e+003
-3.9160000e+003
-3.1880000e+003
-2.6390000e+003
-2.2320000e+003
-1.9560000e+003
-1.7920000e+003
-1.6330000e+003
-1.4560000e+003
-1.2200000e+003
-9.8800000e+002
-8.2600000e+002
-7.1600000e+002
-6.4800000e+002
-5.8600000e+002
-5.1100000e+002
-4.6000000e+002
-4.1400000e+002
-3.9000000e+002
-3.8500000e+002
-3.7600000e+002
-3.4800000e+002
-3.1400000e+002
-2.6600000e+002
-2.4100000e+002
-2.3200000e+002
-2.1600000e+002
-2.0400000e+002
-1.7700000e+002
-1.4200000e+002
-1.2700000e+002
-9.4000000e+001
-8.0000000e+001
-7.6000000e+001
-4.8000000e+001
-2.6000000e+001
9.0000000e+000
2.7000000e+001
4.7000000e+001
7.0000000e+001
9.6000000e+001
1.2400000e+002
1.6400000e+002
1.8800000e+002
2.0600000e+002
2.3400000e+002
2.5500000e+002
2.7800000e+002
3.0200000e+002
3.3000000e+002
3.6800000e+002
3.9600000e+002
4.2800000e+002
4.6300000e+002
4.9200000e+002
5.3000000e+002
5.7400000e+002
6.1600000e+002
6.6000000e+002
6.9600000e+002
7.3600000e+002
7.6800000e+002
7.9900000e+002
8.3300000e+002
8.5600000e+002
8.9000000e+002
9.2000000e+002
9.3600000e+002
9.6400000e+002
9.9200000e+002
9.9800000e+002
1.0160000e+003
1.0170000e+003
1.0160000e+003
1.0120000e+003
9.9800000e+002
9.8800000e+002
9.6800000e+002
9.3300000e+002
9.1100000e+002
8.6800000e+002
8.2400000e+002
7.7000000e+002
7.0400000e+002
6.2000000e+002
5.4200000e+002
4.4800000e+002
3.8400000e+002
3.0400000e+002
2.3600000e+002
1.7600000e+002
1.1200000e+002
6.2000000e+001
-2.2000000e+001
-8.1000000e+001
-1.4000000e+002
-1.9200000e+002
-2.3600000e+002
-2.7600000e+002
-3.1900000e+002
-3.5900000e+002
-3.8400000e+002
-4.2300000e+002
-4.4400000e+002
-4.6600000e+002
-4.9200000e+002
-5.0800000e+002
-5.3300000e+002
-5.4800000e+002
-5.5700000e+002
-5.7500000e+002
-5.9800000e+002
-6.2100000e+002
-6.2800000e+002
-6.2800000e+002
-6.3900000e+002
-6.4800000e+002
-6.4800000e+002
-6.4900000e+002
-6.5500000e+002
-6.6200000e+002
-6.7000000e+002
-6.7400000e+002
-6.9400000e+002
-7.0000000e+002
-7.0400000e+002
-7.1400000e+002
-7.1200000e+002
-7.1800000e+002
-7.1800000e+002
-7.0800000e+002
-7.0800000e+002
-7.1400000e+002
-7.1300000e+002
-7.1900000e+002
-7.1800000e+002
-7.2800000e+002
-7.2700000e+002
-7.2100000e+002
-6.9600000e+002
-6.9200000e+002
-6.8800000e+002
-6.8800000e+002
-6.7600000e+002
-6.6500000e+002
-6.6900000e+002
-6.7800000e+002
-6.8100000e+002
-6.6800000e+002
-6.6200000e+002
-6.5600000e+002
-6.5600000e+002
-6.5200000e+002
-6.4600000e+002
-6.3600000e+002
-6.3900000e+002
-6.3700000e+002
-6.3900000e+002
-6.3600000e+002
-6.3200000e+002
-6.2800000e+002
-6.2800000e+002
-6.2000000e+002
-6.2000000e+002
-6.0800000e+002
-6.1200000e+002
-6.1200000e+002
-6.0400000e+002
-6.0000000e+002
-5.9000000e+002
-5.9300000e+002
-6.0600000e+002
-6.1400000e+002
-6.2600000e+002
-6.3900000e+002
-6.4500000e+002
-6.4800000e+002
-6.4500000e+002
-6.3600000e+002
-6.3800000e+002
-6.3900000e+002
-6.4400000e+002
-6.5700000e+002
-6.7100000e+002
-6.7800000e+002
-6.8400000e+002
-6.8100000e+002
-6.9200000e+002
-6.9200000e+002
-6.9700000e+002
-7.0800000e+002
-7.1100000e+002
-7.2000000e+002
-7.1800000e+002
-7.1200000e+002
-7.2400000e+002
-7.3200000e+002
-7.3600000e+002
-7.3800000e+002
-7.4500000e+002
-7.5200000e+002
-7.4600000e+002
-7.4000000e+002
-7.5000000e+002
-7.4600000e+002
-7.5600000e+002
-7.5600000e+002
-7.6000000e+002
-7.7200000e+002
-7.7200000e+002
-7.6900000e+002
-7.6800000e+002
-7.6000000e+002
-7.5900000e+002
-7.5600000e+002
-7.6800000e+002
-7.7000000e+002
-7.7600000e+002
-7.7000000e+002
-7.7700000e+002
-7.8000000e+002
-7.8100000e+002
-7.8300000e+002
-7.8000000e+002
-7.7400000e+002
-7.7700000e+002
-7.8000000e+002
-7.8400000e+002
-7.8100000e+002
-7.8300000e+002
-7.8200000e+002
-7.7900000e+002
-7.7600000e+002
-7.8100000e+002
-7.7400000e+002
-7.8300000e+002
-7.9000000e+002
-7.8900000e+002
-7.9200000e+002
-7.8400000e+002
-7.9200000e+002
-7.9600000e+002
-7.9000000e+002
-7.9600000e+002
-7.9600000e+002
-8.0400000e+002
-8.1200000e+002
-8.0600000e+002
-8.1400000e+002
-8.0700000e+002
-8.0400000e+002
-8.0600000e+002
-7.9200000e+002
-7.9200000e+002
-7.9900000e+002
-7.9200000e+002
-7.9200000e+002
-8.0800000e+002
-8.1400000e+002
-8.2400000e+002
-8.2300000e+002
-8.1600000e+002
-8.2300000e+002
-8.2200000e+002
-8.2400000e+002
-8.2200000e+002
-8.2800000e+002
-8.3300000e+002
-8.3400000e+002
-8.3400000e+002
-8.4300000e+002
-8.4000000e+002
-8.4200000e+002
-8.4200000e+002
-8.3100000e+002
-8.4000000e+002
-8.4000000e+002
-8.3800000e+002
-8.4200000e+002
-8.3700000e+002
-8.4000000e+002
-8.3000000e+002
-8.2200000e+002
-8.2400000e+002
-8.2400000e+002
-8.2100000e+002
-8.3100000e+002
-8.3600000e+002
-8.3100000e+002
-8.3300000e+002
-8.2400000e+002
-8.2100000e+002
-8.1900000e+002
-8.1400000e+002
-8.2400000e+002
-8.1200000e+002
-8.0500000e+002
-7.9200000e+002
-7.6900000e+002
-7.6900000e+002
-7.6900000e+002
-7.5600000e+002
-7.5800000e+002
-7.6000000e+002
-7.5600000e+002
-7.4800000e+002
-7.3600000e+002
-7.2800000e+002
-7.3600000e+002
-7.6800000e+002
-8.1600000e+002
-8.4900000e+002
-8.6200000e+002
-8.6400000e+002
-8.6800000e+002
-8.5700000e+002
-8.2500000e+002
-8.0300000e+002
-8.1300000e+002
-8.3100000e+002
-8.6400000e+002
-8.9600000e+002
-9.2000000e+002
-9.5200000e+002
-9.4100000e+002
-9.1600000e+002
-8.8800000e+002
-8.8000000e+002
-8.7000000e+002
-8.5100000e+002
-8.4900000e+002
-8.6400000e+002
-8.7100000e+002
-8.8600000e+002
-8.9600000e+002
-8.8100000e+002
-8.6500000e+002
-8.7100000e+002
-8.6200000e+002
-8.6800000e+002
-8.6500000e+002
-8.5300000e+002
-8.5200000e+002
-8.5200000e+002
-8.6200000e+002
-8.6000000e+002
-8.4900000e+002
-8.4900000e+002
-8.4800000e+002
-8.3900000e+002
-8.3600000e+002
-8.3100000e+002
-8.3400000e+002
-8.2500000e+002
-7.9600000e+002
-7.4000000e+002
-6.2400000e+002
-4.2800000e+002
-1.7600000e+002
1.3400000e+002
4.2800000e+002
5.7200000e+002
6.5200000e+002
7.0400000e+002
9.2200000e+002
1.0520000e+003
9.0300000e+002
5.7800000e+002
-3.9000000e+001
-8.1600000e+002
-1.8070000e+003
-3.0720000e+003
-4.3370000e+003
-5.6020000e+003
-6.8670000e+003
-7.8870000e+003
-7.2620000e+003
-6.6370000e+003
-6.0120000e+003
-5.3870000e+003
-4.7620000e+003
-4.1370000e+003
-3.5120000e+003
-2.8870000e+003
-2.4000000e+003
-2.0230000e+003
-1.7630000e+003
-1.6050000e+003
-1.4570000e+003
-1.2530000e+003
-1.0220000e+003
-8.0800000e+002
-6.5300000e+002
-5.5600000e+002
-4.8600000e+002
-4.3800000e+002
-3.7600000e+002
-3.2800000e+002
-2.9000000e+002
-2.6300000e+002
-2.4400000e+002
-2.2200000e+002
-1.8800000e+002
-1.5900000e+002
-1.3200000e+002
-1.1200000e+002
-9.6000000e+001
-8.0000000e+001
-6.8000000e+001
-4.4000000e+001
-1.8000000e+001
1.3000000e+001
3.3000000e+001
5.2000000e+001
6.0000000e+001
8.8000000e+001
1.0900000e+002
1.2700000e+002
1.5800000e+002
1.7200000e+002
1.9600000e+002
2.2000000e+002
2.4000000e+002
2.6600000e+002
2.8600000e+002
3.0900000e+002
3.4600000e+002
3.7600000e+002
4.0900000e+002
4.3600000e+002
4.6800000e+002
5.0400000e+002
5.3600000e+002
5.6200000e+002
5.9600000e+002
6.2600000e+002
6.6800000e+002
7.1000000e+002
7.5000000e+002
7.9800000e+002
8.3600000e+002
8.7200000e+002
9.2600000e+002
9.6900000e+002
1.0200000e+003
1.0480000e+003
1.0640000e+003
1.0920000e+003
1.1180000e+003
1.1360000e+003
1.1560000e+003
1.1750000e+003
1.1880000e+003
1.1960000e+003
1.1920000e+003
1.1900000e+003
1.1760000e+003
1.1590000e+003
1.1400000e+003
1.1060000e+003
1.0680000e+003
1.0160000e+003
9.5600000e+002
8.9600000e+002
8.1600000e+002
7.3200000e+002
6.5000000e+002
5.6100000e+002
4.7400000e+002
3.8800000e+002
3.0400000e+002
2.2600000e+002
1.5400000e+002
8.6000000e+001
2.5000000e+001
-5.2000000e+001
-1.0200000e+002
-1.6000000e+002
-2.1600000e+002
-2.5400000e+002
-2.9000000e+002
-3.2600000e+002
-3.5000000e+002
-3.8400000e+002
-4.1200000e+002
-4.3600000e+002
-4.6000000e+002
-4.8000000e+002
-4.9800000e+002
-5.1100000e+002
-5.2400000e+002
-5.5000000e+002
-5.5400000e+002
-5.5800000e+002
-5.7200000e+002
-5.8400000e+002
-5.9200000e+002
-5.9200000e+002
-5.9600000e+002
-6.0800000e+002
-6.0100000e+002
-6.1400000e+002
-6.2800000e+002
-6.3200000e+002
-6.3800000e+002
-6.3900000e+002
-6.4400000e+002
-6.5200000e+002
-6.4900000e+002
-6.5200000e+002
-6.6000000e+002
-6.6400000e+002
-6.7600000e+002
-6.7900000e+002
-6.8000000e+002
-6.8800000e+002
-6.8400000e+002
-6.8200000e+002
-6.8800000e+002
-6.8600000e+002
-6.9000000e+002
-6.8600000e+002
-6.7600000e+002
-6.7200000e+002
-6.6200000e+002
-6.5400000e+002
-6.5600000e+002
-6.4800000e+002
-6.4800000e+002
-6.4600000e+002
-6.3400000e+002
-6.2800000e+002
-6.1800000e+002
-6.0800000e+002
-6.1200000e+002
-6.0800000e+002
-6.0800000e+002
-6.0800000e+002
-6.0400000e+002
-6.0200000e+002
-5.9600000e+002
-5.9100000e+002
-5.9100000e+002
-5.8300000e+002
-5.8300000e+002
-5.8600000e+002
-5.8500000e+002
-5.9900000e+002
-6.0500000e+002
-6.0800000e+002
-6.1400000e+002
-6.2000000e+002
-6.2600000e+002
-6.2200000e+002
-6.1800000e+002
-6.2800000e+002
-6.3200000e+002
-6.3600000e+002
-6.4700000e+002
-6.5200000e+002
-6.5900000e+002
-6.6800000e+002
-6.7100000e+002
-6.7600000e+002
-6.8500000e+002
-6.9200000e+002
-6.9400000e+002
-6.9000000e+002
-6.9600000e+002
-7.0400000e+002
-6.9700000e+002
-7.0800000e+002
-7.0800000e+002
-7.1200000e+002
-7.1900000e+002
-7.1700000e+002
-7.2800000e+002
-7.3600000e+002
-7.3200000e+002
-7.4000000e+002
-7.4200000e+002
-7.4100000e+002
-7.4800000e+002
-7.4200000e+002
-7.4000000e+002
-7.4000000e+002
-7.4000000e+002
-7.4900000e+002
-7.4800000e+002
-7.5200000e+002
-7.5800000e+002
-7.6000000e+002
-7.6800000e+002
-7.6800000e+002
-7.6800000e+002
-7.7200000e+002
-7.7400000e+002
-7.7600000e+002
-7.8400000e+002
-7.8700000e+002
-7.8800000e+002
-7.8800000e+002
-7.8000000e+002
-7.8400000e+002
-7.8400000e+002
-7.8500000e+002
-7.9600000e+002
-7.9200000e+002
-8.0400000e+002
-8.0400000e+002
-7.9600000e+002
-7.9400000e+002
-7.9200000e+002
-7.9300000e+002
-8.0200000e+002
-7.9700000e+002
-8.0400000e+002
-8.0400000e+002
-7.9600000e+002
-8.0200000e+002
-8.0200000e+002
-8.0400000e+002
-8.0700000e+002
-8.2000000e+002
-8.2800000e+002
-8.2800000e+002
-8.1800000e+002
-8.2200000e+002
-8.2200000e+002
-8.2100000e+002
-8.2000000e+002
-8.2200000e+002
-8.2600000e+002
-8.2000000e+002
-8.1700000e+002
-8.2100000e+002
-8.1700000e+002
-8.2000000e+002
-8.2600000e+002
-8.2400000e+002
-8.1800000e+002
-8.2000000e+002
-8.0800000e+002
-8.1000000e+002
-8.1200000e+002
-8.1800000e+002
-8.2000000e+002
-8.1700000e+002
-8.2400000e+002
-8.3000000e+002
-8.2500000e+002
-8.2800000e+002
-8.2200000e+002
-8.2800000e+002
-8.3600000e+002
-8.2800000e+002
-8.2800000e+002
-8.2100000e+002
-8.0900000e+002
-8.1300000e+002
-8.2100000e+002
-8.2400000e+002
-8.3100000e+002
-8.2800000e+002
-8.3100000e+002
-8.4000000e+002
-8.3100000e+002
-8.3000000e+002
-8.2800000e+002
-8.3100000e+002
-8.2800000e+002
-8.2400000e+002
-8.1700000e+002
-8.0800000e+002
-7.9600000e+002
-7.8300000e+002
-7.6800000e+002
-7.7400000e+002
-7.8500000e+002
-7.8800000e+002
-7.8400000e+002
-7.7000000e+002
-7.6800000e+002
-7.9000000e+002
-8.2800000e+002
-8.5400000e+002
-8.6600000e+002
-8.7000000e+002
-8.8000000e+002
-8.8200000e+002
-8.5400000e+002
-8.3100000e+002
-8.2400000e+002
-8.4000000e+002
-8.8000000e+002
-9.0400000e+002
-9.3300000e+002
-9.5200000e+002
-9.5200000e+002
-9.3600000e+002
-9.0300000e+002
-8.9600000e+002
-8.8500000e+002
-8.7000000e+002
-8.6600000e+002
-8.7200000e+002
-8.7200000e+002
-8.8600000e+002
-8.8800000e+002
-8.9600000e+002
-8.9600000e+002
-8.9600000e+002
-8.9700000e+002
-9.0000000e+002
-8.9600000e+002
-8.9600000e+002
-8.8500000e+002
-8.8800000e+002
-8.9600000e+002
-8.9600000e+002
-8.9600000e+002
-8.9600000e+002
-8.8700000e+002
-8.8800000e+002
-8.8400000e+002
-8.8500000e+002
-8.8600000e+002
-8.7600000e+002
-8.6700000e+002
-8.2500000e+002
-7.1600000e+002
-5.4800000e+002
-2.9200000e+002
-1.2000000e+001
2.9200000e+002
4.6300000e+002
5.5800000e+002
6.5300000e+002
9.0400000e+002
1.0720000e+003
9.9700000e+002
6.8400000e+002
2.1000000e+002
-5.4600000e+002
-1.5050000e+003
-2.6720000e+003
-3.6600000e+003
-4.6480000e+003
-5.6360000e+003
-6.6240000e+003
-7.6120000e+003
-7.1020000e+003
-6.4190000e+003
-5.7360000e+003
-5.0530000e+003
-4.3700000e+003
-3.6870000e+003
-3.0040000e+003
-2.4650000e+003
-2.0620000e+003
-1.8070000e+003
-1.6530000e+003
-1.4940000e+003
-1.2540000e+003
-9.8400000e+002
-7.7200000e+002
-6.5500000e+002
-5.8400000e+002
-5.4300000e+002
-4.8100000e+002
-3.9700000e+002
-3.3000000e+002
-2.9200000e+002
-2.7800000e+002
-2.6900000e+002
-2.4600000e+002
-2.1400000e+002
-1.6800000e+002
-1.2400000e+002
-1.1000000e+002
-1.0200000e+002
-9.2000000e+001
-7.4000000e+001
-4.8000000e+001
-2.1000000e+001
1.6000000e+001
3.4000000e+001
4.6000000e+001
6.0000000e+001
8.0000000e+001
9.6000000e+001
1.2400000e+002
1.4800000e+002
1.6800000e+002
1.9200000e+002
2.1200000e+002
2.4000000e+002
2.7200000e+002
2.9500000e+002
3.2600000e+002
3.4800000e+002
3.7400000e+002
4.0600000e+002
4.3800000e+002
4.7600000e+002
5.0600000e+002
5.3600000e+002
5.7200000e+002
6.0800000e+002
6.3900000e+002
6.8600000e+002
7.2800000e+002
7.7400000e+002
8.1200000e+002
8.5600000e+002
8.9700000e+002
9.4200000e+002
9.8600000e+002
1.0360000e+003
1.0700000e+003
1.0970000e+003
1.1320000e+003
1.1600000e+003
1.1900000e+003
1.2120000e+003
1.2320000e+003
1.2540000e+003
1.2560000e+003
1.2580000e+003
1.2540000e+003
1.2460000e+003
1.2280000e+003
1.2040000e+003
1.1760000e+003
1.1420000e+003
1.0920000e+003
1.0360000e+003
9.7000000e+002
8.8800000e+002
8.0600000e+002
7.1200000e+002
6.1700000e+002
5.2400000e+002
4.3200000e+002
3.4400000e+002
2.5500000e+002
1.7600000e+002
1.0800000e+002
4.4000000e+001
-3.7000000e+001
-9.2000000e+001
-1.4300000e+002
-1.9400000e+002
-2.4200000e+002
-2.8400000e+002
-3.1200000e+002
-3.4100000e+002
-3.6600000e+002
-3.8600000e+002
-4.0800000e+002
-4.2200000e+002
-4.4400000e+002
-4.7400000e+002
-4.8500000e+002
-5.0000000e+002
-5.1100000e+002
-5.2400000e+002
-5.2800000e+002
-5.3700000e+002
-5.4400000e+002
-5.5800000e+002
-5.6500000e+002
-5.6600000e+002
-5.7500000e+002
-5.7500000e+002
-5.8000000e+002
-5.8400000e+002
-5.9200000e+002
-6.0000000e+002
-5.9600000e+002
-6.0100000e+002
-6.0800000e+002
-6.0000000e+002
-6.0800000e+002
-6.0800000e+002
-6.0800000e+002
-6.1600000e+002
-6.1700000e+002
-6.2400000e+002
-6.2400000e+002
-6.1600000e+002
-6.2000000e+002
-6.2100000e+002
-6.2200000e+002
-6.2400000e+002
-6.2200000e+002
-6.2400000e+002
-6.2800000e+002
-6.1600000e+002
-6.1600000e+002
-6.0600000e+002
-6.0000000e+002
-6.0000000e+002
-5.9600000e+002
-5.9800000e+002
-6.0000000e+002
-5.9100000e+002
-5.8800000e+002
-5.8800000e+002
-5.8800000e+002
-5.9400000e+002
-5.8800000e+002
-5.8400000e+002
-5.8200000e+002
-5.7000000e+002
-5.6400000e+002
-5.5600000e+002
-5.6000000e+002
-5.6600000e+002
-5.6300000e+002
-5.6400000e+002
-5.6400000e+002
-5.5700000e+002
-5.6400000e+002
-5.6600000e+002
-5.6800000e+002
-5.7400000e+002
-5.7200000e+002
-5.7400000e+002
-5.7500000e+002
-5.7000000e+002
-5.8000000e+002
-5.8000000e+002
-5.8000000e+002
-5.9800000e+002
-6.0100000e+002
-6.0000000e+002
-6.0000000e+002
-6.0400000e+002
-6.1400000e+002
-6.2000000e+002
-6.2500000e+002
-6.3800000e+002
-6.3900000e+002
-6.3900000e+002
-6.3900000e+002
-6.4500000e+002
-6.4900000e+002
-6.6000000e+002
-6.6600000e+002
-6.7100000e+002
-6.7600000e+002
-6.8400000e+002
-6.8600000e+002
-6.8800000e+002
-6.9000000e+002
-6.9200000e+002
-6.9400000e+002
-7.0400000e+002
-7.0400000e+002
-7.0900000e+002
-7.1300000e+002
-7.1300000e+002
-7.1600000e+002
-7.1300000e+002
-7.1900000e+002
-7.2600000e+002
-7.2600000e+002
-7.3600000e+002
-7.3600000e+002
-7.3600000e+002
-7.4200000e+002
-7.3700000e+002
-7.4200000e+002
-7.4800000e+002
-7.4800000e+002
-7.5000000e+002
-7.5000000e+002
-7.4800000e+002
-7.5600000e+002
-7.5800000e+002
-7.5800000e+002
-7.6000000e+002
-7.5600000e+002
-7.6000000e+002
-7.5600000e+002
-7.4800000e+002
-7.4400000e+002
-7.4400000e+002
-7.4900000e+002
-7.6000000e+002
-7.6000000e+002
-7.6800000e+002
-7.6800000e+002
-7.6800000e+002
-7.6800000e+002
-7.6800000e+002
-7.6800000e+002
-7.7200000e+002
-7.7300000e+002
-7.7300000e+002
-7.7700000e+002
-7.7400000e+002
-7.7500000e+002
-7.7300000e+002
-7.7600000e+002
-7.8300000e+002
-7.8300000e+002
-7.8300000e+002
-7.8200000e+002
-7.7800000e+002
-7.7600000e+002
-7.7500000e+002
-7.7500000e+002
-7.8200000e+002
-7.8000000e+002
-7.8300000e+002
-7.8100000e+002
-7.7700000e+002
-7.8000000e+002
-7.7700000e+002
-7.8400000e+002
-7.9200000e+002
-7.9000000e+002
-7.9200000e+002
-7.9300000e+002
-7.8800000e+002
-7.9000000e+002
-7.8900000e+002
-7.8300000e+002
-7.9100000e+002
-7.8800000e+002
-7.9300000e+002
-7.9200000e+002
-7.8300000e+002
-7.8800000e+002
-7.8000000e+002
-7.8000000e+002
-7.8200000e+002
-7.8000000e+002
-7.7600000e+002
-7.7800000e+002
-7.7700000e+002
-7.8100000e+002
-7.8500000e+002
-7.8400000e+002
-7.8600000e+002
-7.8500000e+002
-7.8900000e+002
-7.8900000e+002
-7.8300000e+002
-7.8500000e+002
-7.8800000e+002
-7.9000000e+002
-7.9300000e+002
-7.9200000e+002
-7.8800000e+002
-7.8600000e+002
-7.8100000e+002
-7.8300000e+002
-7.7100000e+002
-7.5800000e+002
-7.5000000e+002
-7.3600000e+002
-7.3600000e+002
-7.1600000e+002
-7.0400000e+002
-7.2000000e+002
-7.2600000e+002
-7.3000000e+002
-7.2800000e+002
-7.1000000e+002
-7.0900000e+002
-7.3600000e+002
-7.7200000e+002
-8.0100000e+002
-8.0500000e+002
-8.2500000e+002
-8.4400000e+002
-8.4400000e+002
-8.2200000e+002
-7.9600000e+002
-7.8300000e+002
-8.0700000e+002
-8.4400000e+002
-8.6800000e+002
-9.0200000e+002
-9.2100000e+002
-9.2400000e+002
-9.1400000e+002
-8.7700000e+002
-8.6400000e+002
-8.5000000e+002
-8.4200000e+002
-8.4400000e+002
-8.5200000e+002
-8.6600000e+002
-8.7300000e+002
-8.7200000e+002
-8.7400000e+002
-8.6700000e+002
-8.6000000e+002
-8.6500000e+002
-8.6400000e+002
-8.6500000e+002
-8.6400000e+002
-8.5600000e+002
-8.5400000e+002
-8.5200000e+002
-8.5000000e+002
-8.5700000e+002
-8.6000000e+002
-8.5700000e+002
-8.5600000e+002
-8.4800000e+002
-8.5000000e+002
-8.5400000e+002
-8.4900000e+002
-8.3600000e+002
-7.8300000e+002
-6.8000000e+002
-4.9600000e+002
-2.3600000e+002
7.6000000e+001
3.6600000e+002
5.1100000e+002
6.0400000e+002
7.1000000e+002
9.8800000e+002
1.1510000e+003
1.0740000e+003
7.7400000e+002
2.5500000e+002
-5.3200000e+002
-1.5280000e+003
-2.7050000e+003
-3.6960000e+003
-4.6870000e+003
-5.6780000e+003
-6.6690000e+003
-7.6170000e+003
-6.9430000e+003
-6.2690000e+003
-5.5950000e+003
-4.9210000e+003
-4.2470000e+003
-3.5730000e+003
-2.8990000e+003
-2.3780000e+003
-2.0130000e+003
-1.7980000e+003
-1.6550000e+003
-1.4780000e+003
-1.2040000e+003
-9.1700000e+002
-7.2900000e+002
-6.2400000e+002
-5.6900000e+002
-5.3600000e+002
-4.6600000e+002
-3.8400000e+002
-3.1400000e+002
-2.8000000e+002
-2.7800000e+002
-2.6600000e+002
-2.4200000e+002
-2.0400000e+002
-1.4800000e+002
-1.2000000e+002
-1.0800000e+002
-9.8000000e+001
-9.8000000e+001
-7.7000000e+001
-5.0000000e+001
-2.4000000e+001
1.7000000e+001
2.1000000e+001
3.2000000e+001
5.3000000e+001
7.0000000e+001
9.6000000e+001
1.2400000e+002
1.4000000e+002
1.5800000e+002
1.7600000e+002
2.0000000e+002
2.3200000e+002
2.5500000e+002
2.8600000e+002
3.1600000e+002
3.4000000e+002
3.6800000e+002
3.9600000e+002
4.2400000e+002
4.6300000e+002
4.8400000e+002
5.2000000e+002
5.4800000e+002
5.7500000e+002
6.2000000e+002
6.6400000e+002
6.9600000e+002
7.4000000e+002
7.7400000e+002
8.1200000e+002
8.4900000e+002
8.8000000e+002
9.2800000e+002
9.6400000e+002
1.0040000e+003
1.0480000e+003
1.0720000e+003
1.0960000e+003
1.1200000e+003
1.1360000e+003
1.1510000e+003
1.1620000e+003
1.1720000e+003
1.1830000e+003
1.1730000e+003
1.1600000e+003
1.1340000e+003
1.1030000e+003
1.0700000e+003
1.0230000e+003
9.8400000e+002
9.3400000e+002
8.6600000e+002
7.9600000e+002
7.1600000e+002
6.2000000e+002
5.3200000e+002
4.3600000e+002
3.4600000e+002
2.7000000e+002
1.8400000e+002
1.1000000e+002
4.0000000e+001
-3.6000000e+001
-9.6000000e+001
-1.4800000e+002
-1.9200000e+002
-2.3000000e+002
-2.7400000e+002
-3.1200000e+002
-3.4400000e+002
-3.8400000e+002
-4.0600000e+002
-4.2800000e+002
-4.5000000e+002
-4.6000000e+002
-4.8000000e+002
-5.0200000e+002
-5.2200000e+002
-5.3800000e+002
-5.4800000e+002
-5.6400000e+002
-5.7800000e+002
-5.8200000e+002
-5.9300000e+002
-6.0000000e+002
-6.0400000e+002
-6.1200000e+002
-6.0900000e+002
-6.1600000e+002
-6.2000000e+002
-6.2000000e+002
-6.3200000e+002
-6.3600000e+002
-6.4600000e+002
-6.5500000e+002
-6.5300000e+002
-6.4900000e+002
-6.5200000e+002
-6.5200000e+002
-6.5600000e+002
-6.5900000e+002
-6.6400000e+002
-6.7200000e+002
-6.7600000e+002
-6.8000000e+002
-6.7900000e+002
-6.7200000e+002
-6.6900000e+002
-6.6500000e+002
-6.6100000e+002
-6.6400000e+002
-6.6200000e+002
-6.6800000e+002
-6.6200000e+002
-6.5300000e+002
-6.5700000e+002
-6.5600000e+002
-6.5600000e+002
-6.5000000e+002
-6.3900000e+002
-6.3900000e+002
-6.3900000e+002
-6.2400000e+002
-6.2400000e+002
-6.2000000e+002
-6.1500000e+002
-6.1800000e+002
-6.1500000e+002
-6.1300000e+002
-6.1200000e+002
-6.0200000e+002
-6.0400000e+002
-5.9800000e+002
-6.0000000e+002
-6.0800000e+002
-6.0200000e+002
-6.0400000e+002
-6.0000000e+002
-5.9600000e+002
-6.0000000e+002
-6.0000000e+002
-6.0400000e+002
-6.1000000e+002
-6.1700000e+002
-6.2000000e+002
-6.2800000e+002
-6.2400000e+002
-6.3000000e+002
-6.3800000e+002
-6.4600000e+002
-6.6100000e+002
-6.5800000e+002
-6.6400000e+002
-6.6800000e+002
-6.6600000e+002
-6.6800000e+002
-6.6400000e+002
-6.6800000e+002
-6.7700000e+002
-6.7800000e+002
-6.8500000e+002
-6.8900000e+002
-6.9000000e+002
-7.0000000e+002
-7.0800000e+002
-7.1200000e+002
-7.1700000e+002
-7.2100000e+002
-7.2700000e+002
-7.2800000e+002
-7.2500000e+002
-7.2800000e+002
-7.3600000e+002
-7.4000000e+002
-7.4000000e+002
-7.3600000e+002
-7.3800000e+002
-7.4200000e+002
-7.4300000e+002
-7.5600000e+002
-7.5800000e+002
-7.6800000e+002
-7.7500000e+002
-7.7600000e+002
-7.7300000e+002
-7.6900000e+002
-7.6800000e+002
-7.7600000e+002
-7.8000000e+002
-7.8200000e+002
-7.9000000e+002
-7.8500000e+002
-7.8900000e+002
-7.8800000e+002
-7.7600000e+002
-7.8300000e+002
-7.8000000e+002
-7.8600000e+002
-7.9600000e+002
-8.0100000e+002
-8.0400000e+002
-8.0700000e+002
-8.0500000e+002
-8.0800000e+002
-8.0400000e+002
-8.0400000e+002
-8.0800000e+002
-8.0500000e+002
-8.0700000e+002
-8.0600000e+002
-7.9900000e+002
-8.0600000e+002
-8.0400000e+002
-8.0400000e+002
-8.0800000e+002
-8.1200000e+002
-8.1400000e+002
-8.1000000e+002
-8.0500000e+002
-8.1200000e+002
-8.1200000e+002
-8.1600000e+002
-8.2400000e+002
-8.2000000e+002
-8.2100000e+002
-8.2000000e+002
-8.0900000e+002
-8.0900000e+002
-8.0900000e+002
-8.1000000e+002
-8.0900000e+002
-8.1000000e+002
-8.2200000e+002
-8.2000000e+002
-8.1200000e+002
-8.1600000e+002
-8.0900000e+002
-8.1400000e+002
-8.2300000e+002
-8.2400000e+002
-8.2500000e+002
-8.2400000e+002
-8.2000000e+002
-8.2400000e+002
-8.1400000e+002
-8.1600000e+002
-8.2400000e+002
-8.2000000e+002
-8.2600000e+002
-8.3000000e+002
-8.3100000e+002
-8.3600000e+002
-8.3400000e+002
-8.3900000e+002
-8.4100000e+002
-8.3400000e+002
-8.3300000e+002
-8.3100000e+002
-8.2400000e+002
-8.2200000e+002
-8.1800000e+002
-8.1900000e+002
-8.2400000e+002
-8.2300000e+002
-8.1600000e+002
-8.0900000e+002
-7.9200000e+002
-7.8800000e+002
-7.8200000e+002
-7.6800000e+002
-7.6800000e+002
-7.7300000e+002
-7.8000000e+002
-7.8200000e+002
-7.7400000e+002
-7.5800000e+002
-7.5400000e+002
-7.7600000e+002
-8.1700000e+002
-8.3800000e+002
-8.5200000e+002
-8.7200000e+002
-8.8400000e+002
-8.8000000e+002
-8.5300000e+002
-8.3100000e+002
-8.3600000e+002
-8.4900000e+002
-8.8000000e+002
-9.0400000e+002
-9.2900000e+002
-9.4900000e+002
-9.4200000e+002
-9.3600000e+002
-9.0400000e+002
-8.9700000e+002
-8.8700000e+002
-8.7200000e+002
-8.7600000e+002
-8.8600000e+002
-8.8800000e+002
-9.0000000e+002
-9.0800000e+002
-9.1000000e+002
-9.0300000e+002
-9.0000000e+002
-8.9600000e+002
-8.9800000e+002
-8.9800000e+002
-8.9600000e+002
-8.9600000e+002
-8.8800000e+002
-8.8800000e+002
-8.8700000e+002
-8.7800000e+002
-8.8400000e+002
-8.9600000e+002
-8.8900000e+002
-8.9600000e+002
-8.9600000e+002
-8.9600000e+002
-8.7700000e+002
-8.4800000e+002
-8.0800000e+002
-7.0800000e+002
-5.3400000e+002
-2.8600000e+002
2.3000000e+001
3.3200000e+002
5.0400000e+002
6.0800000e+002
7.0400000e+002
9.4500000e+002
1.1400000e+003
1.1040000e+003
8.5600000e+002
3.7400000e+002
-3.7200000e+002
-1.3010000e+003
-2.5320000e+003
-3.5560000e+003
-4.5800000e+003
-5.6040000e+003
-6.6280000e+003
-7.6520000e+003
-7.0720000e+003
-6.3840000e+003
-5.6960000e+003
-5.0080000e+003
-4.3200000e+003
-3.6320000e+003
-2.9440000e+003
-2.4250000e+003
-2.0600000e+003
-1.8320000e+003
-1.6950000e+003
-1.5240000e+003
-1.2650000e+003
-9.9800000e+002
-7.9900000e+002
-6.9800000e+002
-6.4800000e+002
-6.0800000e+002
-5.4300000e+002
-4.5400000e+002
-3.8400000e+002
-3.5400000e+002
-3.5200000e+002
-3.5200000e+002
-3.2900000e+002
-2.8400000e+002
-2.4000000e+002
-2.0700000e+002
-1.9400000e+002
-1.9800000e+002
-1.8500000e+002
-1.6900000e+002
-1.4400000e+002
-1.0800000e+002
-8.6000000e+001
-7.2000000e+001
-6.6000000e+001
-5.5000000e+001
-3.0000000e+001
1.3000000e+001
3.8000000e+001
6.0000000e+001
7.2000000e+001
9.2000000e+001
1.1200000e+002
1.3400000e+002
1.6600000e+002
1.8400000e+002
2.1000000e+002
2.4000000e+002
2.6400000e+002
2.9200000e+002
3.2400000e+002
3.5300000e+002
3.9000000e+002
4.2800000e+002
4.5500000e+002
4.9200000e+002
5.2400000e+002
5.5800000e+002
5.9600000e+002
6.3000000e+002
6.7000000e+002
7.0800000e+002
7.4800000e+002
7.9400000e+002
8.3100000e+002
8.7100000e+002
9.0000000e+002
9.2800000e+002
9.5600000e+002
9.8000000e+002
1.0020000e+003
1.0230000e+003
1.0320000e+003
1.0380000e+003
1.0420000e+003
1.0390000e+003
1.0330000e+003
1.0230000e+003
1.0200000e+003
1.0040000e+003
9.7200000e+002
9.3200000e+002
8.8100000e+002
8.1400000e+002
7.5200000e+002
6.8000000e+002
6.0800000e+002
5.3200000e+002
4.4500000e+002
3.5900000e+002
2.8000000e+002
2.0000000e+002
1.2700000e+002
6.6000000e+001
-1.8000000e+001
-7.8000000e+001
-1.3200000e+002
-1.8000000e+002
-2.2600000e+002
-2.7600000e+002
-3.0500000e+002
-3.2900000e+002
-3.6000000e+002
-3.8400000e+002
-4.1300000e+002
-4.4900000e+002
-4.7800000e+002
-5.0400000e+002
-5.2400000e+002
-5.3400000e+002
-5.5000000e+002
-5.6000000e+002
-5.7400000e+002
-5.8200000e+002
-5.9100000e+002
-6.0100000e+002
-6.0100000e+002
-6.0400000e+002
-6.0800000e+002
-6.0600000e+002
-6.1200000e+002
-6.2200000e+002
-6.3900000e+002
-6.6000000e+002
-6.6400000e+002
-6.6800000e+002
-6.7900000e+002
-6.7100000e+002
-6.7300000e+002
-6.7000000e+002
-6.7300000e+002
-6.8000000e+002
-6.7800000e+002
-6.8500000e+002
-6.9000000e+002
-6.8000000e+002
-6.8600000e+002
-6.7700000e+002
-6.7300000e+002
-6.7600000e+002
-6.6900000e+002
-6.7600000e+002
-6.6900000e+002
-6.6400000e+002
-6.5400000e+002
-6.5800000e+002
-6.5000000e+002
-6.5200000e+002
-6.5200000e+002
-6.5300000e+002
-6.4600000e+002
-6.3400000e+002
-6.3300000e+002
-6.2800000e+002
-6.3000000e+002
-6.3600000e+002
-6.2600000e+002
-6.2600000e+002
-6.2400000e+002
-6.1600000e+002
-6.2000000e+002
-6.0900000e+002
-6.0500000e+002
-6.0400000e+002
-5.9600000e+002
-5.9200000e+002
-5.9300000e+002
-5.8800000e+002
-5.8900000e+002
-5.9200000e+002
-6.0000000e+002
-6.1200000e+002
-6.1200000e+002
-6.1200000e+002
-6.1200000e+002
-6.1600000e+002
-6.2800000e+002
-6.2600000e+002
-6.2500000e+002
-6.3700000e+002
-6.3200000e+002
-6.3300000e+002
-6.3900000e+002
-6.3600000e+002
-6.5500000e+002
-6.6400000e+002
-6.7800000e+002
-6.8800000e+002
-6.9600000e+002
-6.9600000e+002
-6.9600000e+002
-7.0400000e+002
-7.1600000e+002
-7.1600000e+002
-7.1900000e+002
-7.3600000e+002
-7.3200000e+002
-7.3300000e+002
-7.3200000e+002
-7.2200000e+002
-7.2600000e+002
-7.2600000e+002
-7.3600000e+002
-7.4800000e+002
-7.5200000e+002
-7.6800000e+002
-7.7200000e+002
-7.7200000e+002
-7.7700000e+002
-7.7300000e+002
-7.7000000e+002
-7.7300000e+002
-7.7200000e+002
-7.7600000e+002
-7.8300000e+002
-7.8800000e+002
-8.0800000e+002
-8.2000000e+002
-8.2800000e+002
-8.4200000e+002
-8.4100000e+002
-8.4700000e+002
-8.4200000e+002
-8.2900000e+002
-8.3600000e+002
-8.3700000e+002
-8.4000000e+002
-8.5000000e+002
-8.4800000e+002
-8.5600000e+002
-8.6400000e+002
-8.6000000e+002
-8.6000000e+002
-8.5400000e+002
-8.5200000e+002
-8.4900000e+002
-8.5200000e+002
-8.4800000e+002
-8.4700000e+002
-8.3800000e+002
-8.4000000e+002
-8.4500000e+002
-8.4400000e+002
-8.4400000e+002
-8.4400000e+002
-8.5200000e+002
-8.5200000e+002
-8.3800000e+002
-8.3700000e+002
-8.2900000e+002
-8.2500000e+002
-8.3100000e+002
-8.3400000e+002
-8.4300000e+002
-8.4900000e+002
-8.4400000e+002
-8.4500000e+002
-8.4400000e+002
-8.4800000e+002
-8.4900000e+002
-8.4500000e+002
-8.5200000e+002
-8.6100000e+002
-8.5700000e+002
-8.5700000e+002
-8.5200000e+002
-8.4700000e+002
-8.4900000e+002
-8.4700000e+002
-8.5000000e+002
-8.5600000e+002
-8.4800000e+002
-8.4700000e+002
-8.4400000e+002
-8.4000000e+002
-8.4700000e+002
-8.4000000e+002
-8.4400000e+002
-8.4200000e+002
-8.4400000e+002
-8.4100000e+002
-8.2800000e+002
-8.2400000e+002
-8.2900000e+002
-8.2800000e+002
-8.2800000e+002
-8.2200000e+002
-8.1200000e+002
-8.0000000e+002
-7.9300000e+002
-7.9300000e+002
-7.8100000e+002
-7.7900000e+002
-8.0400000e+002
-8.2300000e+002
-8.1700000e+002
-8.0700000e+002
-7.8600000e+002
-7.9300000e+002
-8.1000000e+002
-8.3600000e+002
-8.6400000e+002
-8.7600000e+002
-8.9600000e+002
-9.0800000e+002
-8.8800000e+002
-8.6600000e+002
-8.5500000e+002
-8.5200000e+002
-8.7600000e+002
-9.0000000e+002
-9.2200000e+002
-9.5600000e+002
-9.6500000e+002
-9.5600000e+002
-9.3600000e+002
-9.0300000e+002
-8.8000000e+002
-8.7100000e+002
-8.6400000e+002
-8.8200000e+002
-8.9600000e+002
-9.0500000e+002
-9.3000000e+002
-9.3400000e+002
-9.3000000e+002
-9.1700000e+002
-9.0000000e+002
-8.8900000e+002
-8.7600000e+002
-8.7800000e+002
-8.8800000e+002
-8.8500000e+002
-8.8800000e+002
-8.9600000e+002
-9.0000000e+002
-9.0100000e+002
-8.9700000e+002
-8.9600000e+002
-9.0000000e+002
-8.9700000e+002
-8.9600000e+002
-8.9600000e+002
-8.7200000e+002
-8.4000000e+002
-7.6800000e+002
-6.2100000e+002
-3.9800000e+002
-1.4000000e+002
2.0900000e+002
4.4800000e+002
5.6000000e+002
6.1800000e+002
7.2800000e+002
9.1600000e+002
1.0230000e+003
8.6400000e+002
4.8400000e+002
-1.2000000e+002
-8.6900000e+002
-1.9270000e+003
-3.1790000e+003
-4.0560000e+003
-4.9330000e+003
-5.8100000e+003
-6.6870000e+003
-7.3440000e+003
-6.6580000e+003
-5.9720000e+003
-5.2860000e+003
-4.6000000e+003
-3.9140000e+003
-3.2280000e+003
-2.6560000e+003
-2.2400000e+003
-1.9460000e+003
-1.7610000e+003
-1.6020000e+003
-1.4380000e+003
-1.2200000e+003
-9.8900000e+002
-8.0700000e+002
-6.8400000e+002
-6.0400000e+002
-5.4000000e+002
-4.6800000e+002
-3.9600000e+002
-3.4800000e+002
-3.1800000e+002
-3.0000000e+002
-2.8100000e+002
-2.4900000e+002
-2.2400000e+002
-1.9600000e+002
-1.7700000e+002
-1.7200000e+002
-1.6000000e+002
-1.5000000e+002
-1.2700000e+002
-9.2000000e+001
-6.8000000e+001
-4.9000000e+001
-4.8000000e+001
-3.4000000e+001
1.2000000e+001
4.0000000e+001
7.0000000e+001
1.0000000e+002
1.0800000e+002
1.2000000e+002
1.2400000e+002
1.2400000e+002
1.5600000e+002
1.7400000e+002
2.1000000e+002
2.5200000e+002
2.8000000e+002
3.0600000e+002
3.3200000e+002
3.5400000e+002
3.8400000e+002
4.1400000e+002
4.4000000e+002
4.7200000e+002
5.0400000e+002
5.4400000e+002
5.8800000e+002
6.1700000e+002
6.4800000e+002
6.8800000e+002
7.3600000e+002
7.7500000e+002
8.1200000e+002
8.4900000e+002
8.8000000e+002
8.9600000e+002
9.1600000e+002
9.4400000e+002
9.6700000e+002
9.8200000e+002
9.9200000e+002
1.0080000e+003
1.0160000e+003
1.0060000e+003
1.0040000e+003
9.9300000e+002
9.8800000e+002
9.7400000e+002
9.4400000e+002
9.1200000e+002
8.6000000e+002
7.9900000e+002
7.4000000e+002
6.7000000e+002
6.0000000e+002
5.2400000e+002
4.4800000e+002
3.8400000e+002
3.0400000e+002
2.2400000e+002
1.4800000e+002
7.6000000e+001
1.6000000e+001
-4.2000000e+001
-9.6000000e+001
-1.4600000e+002
-1.8400000e+002
-2.3100000e+002
-2.6800000e+002
-3.0800000e+002
-3.5200000e+002
-3.8800000e+002
-4.2500000e+002
-4.4800000e+002
-4.7400000e+002
-5.1100000e+002
-5.4000000e+002
-5.6200000e+002
-5.8000000e+002
-5.8800000e+002
-6.0800000e+002
-6.1600000e+002
-6.2000000e+002
-6.2600000e+002
-6.3200000e+002
-6.3900000e+002
-6.5800000e+002
-6.6100000e+002
-6.7700000e+002
-6.8200000e+002
-6.8800000e+002
-7.0800000e+002
-7.1100000e+002
-7.0800000e+002
-7.1100000e+002
-7.1200000e+002
-7.1800000e+002
-7.1600000e+002
-7.2200000e+002
-7.3200000e+002
-7.4000000e+002
-7.4400000e+002
-7.4500000e+002
-7.4200000e+002
-7.5000000e+002
-7.4400000e+002
-7.4000000e+002
-7.3700000e+002
-7.2400000e+002
-7.1800000e+002
-7.0700000e+002
-6.9000000e+002
-6.9700000e+002
-6.9800000e+002
-7.0500000e+002
-7.1800000e+002
-7.1700000e+002
-7.2700000e+002
-7.2400000e+002
-7.1200000e+002
-7.0400000e+002
-6.8800000e+002
-6.8000000e+002
-6.8800000e+002
-6.8800000e+002
-6.9200000e+002
-6.8800000e+002
-6.8200000e+002
-6.7800000e+002
-6.6800000e+002
-6.6000000e+002
-6.6800000e+002
-6.6200000e+002
-6.6400000e+002
-6.7900000e+002
-6.8100000e+002
-6.7600000e+002
-6.7900000e+002
-6.7600000e+002
-6.7600000e+002
-6.7100000e+002
-6.8000000e+002
-6.8400000e+002
-6.8500000e+002
-7.0400000e+002
-7.0400000e+002
-7.0600000e+002
-7.1800000e+002
-7.1200000e+002
-7.0400000e+002
-7.0400000e+002
-7.0400000e+002
-7.1400000e+002
-7.2100000e+002
-7.2600000e+002
-7.4200000e+002
-7.5800000e+002
-7.6800000e+002
-7.7600000e+002
-7.7700000e+002
-7.8800000e+002
-7.8900000e+002
-7.8800000e+002
-7.9900000e+002
-7.9900000e+002
-8.0500000e+002
-8.0600000e+002
-8.1300000e+002
-8.2000000e+002
-8.2300000e+002
-8.2400000e+002
-8.3300000e+002
-8.3100000e+002
-8.3100000e+002
-8.3700000e+002
-8.3400000e+002
-8.4400000e+002
-8.5300000e+002
-8.5600000e+002
-8.5600000e+002
-8.6000000e+002
-8.6400000e+002
-8.6800000e+002
-8.6400000e+002
-8.6800000e+002
-8.6400000e+002
-8.5600000e+002
-8.6200000e+002
-8.6900000e+002
-8.6000000e+002
-8.6400000e+002
-8.6600000e+002
-8.6500000e+002
-8.7000000e+002
-8.7300000e+002
-8.8200000e+002
-8.8000000e+002
-8.7600000e+002
-8.8000000e+002
-8.7400000e+002
-8.7600000e+002
-8.7200000e+002
-8.7000000e+002
-8.7300000e+002
-8.6100000e+002
-8.6900000e+002
-8.6900000e+002
-8.6600000e+002
-8.7100000e+002
-8.8400000e+002
-8.8000000e+002
-8.8200000e+002
-8.7700000e+002
-8.8000000e+002
-8.8000000e+002
-8.7700000e+002
-8.8500000e+002
-8.8800000e+002
-8.9700000e+002
-9.1300000e+002
-9.0800000e+002
-9.0800000e+002
-9.1400000e+002
-9.0800000e+002
-9.0600000e+002
-9.0800000e+002
-9.0300000e+002
-9.0600000e+002
-9.0800000e+002
-9.1000000e+002
-9.0900000e+002
-9.0600000e+002
-9.0800000e+002
-9.0300000e+002
-9.0400000e+002
-9.0800000e+002
-9.0600000e+002
-9.0800000e+002
-9.1300000e+002
-9.1000000e+002
-9.1600000e+002
-9.1600000e+002
-9.0900000e+002
-9.0900000e+002
-8.8800000e+002
-8.8400000e+002
-8.7700000e+002
-8.5800000e+002
-8.5700000e+002
-8.5300000e+002
-8.4500000e+002
-8.5300000e+002
-8.6400000e+002
-8.7300000e+002
-8.7300000e+002
-8.5600000e+002
-8.4600000e+002
-8.6100000e+002
-8.9600000e+002
-9.3600000e+002
-9.6000000e+002
-9.6400000e+002
-9.6500000e+002
-9.6800000e+002
-9.5200000e+002
-9.2700000e+002
-9.1300000e+002
-9.2800000e+002
-9.5300000e+002
-9.8500000e+002
-1.0160000e+003
-1.0360000e+003
-1.0550000e+003
-1.0330000e+003
-9.9900000e+002
-9.8000000e+002
-9.7700000e+002
-9.7200000e+002
-9.6000000e+002
-9.5000000e+002
-9.6000000e+002
-9.6800000e+002
-9.8100000e+002
-9.9200000e+002
-9.9200000e+002
-9.9600000e+002
-1.0020000e+003
-9.9200000e+002
-9.9800000e+002
-9.9600000e+002
-9.7500000e+002
-9.7500000e+002
-9.7200000e+002
-9.6600000e+002
-9.6600000e+002
-9.6400000e+002
-9.6900000e+002
-9.6400000e+002
-9.6000000e+002
-9.6000000e+002
-9.5300000e+002
-9.4800000e+002
-9.2500000e+002
-8.7200000e+002
-7.7000000e+002
-5.7500000e+002
-3.1400000e+002
-5.6000000e+001
2.8400000e+002
4.5200000e+002
5.3800000e+002
5.9700000e+002
7.3800000e+002
9.1600000e+002
9.2400000e+002
6.3900000e+002
1.6800000e+002
-5.4000000e+002
-1.4420000e+003
-2.6680000e+003
-3.8610000e+003
-5.0540000e+003
-6.2470000e+003
-7.4400000e+003
-7.7950000e+003
-7.1380000e+003
-6.4810000e+003
-5.8240000e+003
-5.1670000e+003
-4.5100000e+003
-3.8530000e+003
-3.1960000e+003
-2.6770000e+003
-2.2760000e+003
-1.9780000e+003
-1.7840000e+003
-1.6410000e+003
-1.4560000e+003
-1.2160000e+003
-1.0010000e+003
-8.3800000e+002
-7.3200000e+002
-6.4800000e+002
-5.8200000e+002
-5.2000000e+002
-4.6100000e+002
-4.2000000e+002
-3.9200000e+002
-3.8400000e+002
-3.6800000e+002
-3.4400000e+002
-3.0400000e+002
-2.7300000e+002
-2.4000000e+002
-2.1600000e+002
-2.1200000e+002
-1.9600000e+002
-1.6700000e+002
-1.4800000e+002
-1.2000000e+002
-1.1000000e+002
-9.6000000e+001
-7.8000000e+001
-7.1000000e+001
-4.8000000e+001
-2.7000000e+001
1.2000000e+001
4.4000000e+001
6.1000000e+001
8.8000000e+001
1.1200000e+002
1.2700000e+002
1.5900000e+002
1.8600000e+002
2.1000000e+002
2.4400000e+002
2.6800000e+002
3.0100000e+002
3.3400000e+002
3.6800000e+002
4.0600000e+002
4.3600000e+002
4.5600000e+002
4.9000000e+002
5.1900000e+002
5.5200000e+002
5.8000000e+002
6.0800000e+002
6.5200000e+002
6.9400000e+002
7.4200000e+002
7.9400000e+002
8.3100000e+002
8.6800000e+002
9.0300000e+002
9.2700000e+002
9.6000000e+002
9.7900000e+002
9.9800000e+002
1.0230000e+003
1.0320000e+003
1.0390000e+003
1.0460000e+003
1.0320000e+003
1.0230000e+003
1.0040000e+003
9.7400000e+002
9.5400000e+002
9.1600000e+002
8.6800000e+002
8.0600000e+002
7.3200000e+002
6.6000000e+002
5.7300000e+002
4.8700000e+002
4.0600000e+002
3.1900000e+002
2.4000000e+002
1.6400000e+002
8.2000000e+001
1.7000000e+001
-6.2000000e+001
-1.2400000e+002
-1.7200000e+002
-2.2800000e+002
-2.7400000e+002
-3.1600000e+002
-3.6800000e+002
-4.1200000e+002
-4.5300000e+002
-4.9000000e+002
-5.1700000e+002
-5.4400000e+002
-5.6800000e+002
-5.8400000e+002
-6.0400000e+002
-6.1600000e+002
-6.3200000e+002
-6.5200000e+002
-6.5600000e+002
-6.6800000e+002
-6.7600000e+002
-6.8800000e+002
-7.0400000e+002
-7.0000000e+002
-7.0600000e+002
-7.1200000e+002
-7.1300000e+002
-7.1800000e+002
-7.1800000e+002
-7.2400000e+002
-7.3600000e+002
-7.3200000e+002
-7.4000000e+002
-7.4000000e+002
-7.4000000e+002
-7.4400000e+002
-7.4800000e+002
-7.5000000e+002
-7.5700000e+002
-7.5400000e+002
-7.6000000e+002
-7.6800000e+002
-7.6000000e+002
-7.6000000e+002
-7.6800000e+002
-7.6800000e+002
-7.6800000e+002
-7.6800000e+002
-7.6000000e+002
-7.6000000e+002
-7.5000000e+002
-7.4800000e+002
-7.4300000e+002
-7.3200000e+002
-7.4200000e+002
-7.3400000e+002
-7.2400000e+002
-7.2200000e+002
-7.1600000e+002
-7.1400000e+002
-7.0600000e+002
-7.0000000e+002
-7.0800000e+002
-7.0000000e+002
-6.9500000e+002
-6.9300000e+002
-6.8600000e+002
-6.8600000e+002
-6.8000000e+002
-6.8000000e+002
-6.9200000e+002
-6.9200000e+002
-6.9500000e+002
-6.9400000e+002
-6.8800000e+002
-7.0000000e+002
-7.0000000e+002
-6.9600000e+002
-7.0400000e+002
-6.9600000e+002
-7.0400000e+002
-7.1100000e+002
-7.1400000e+002
-7.1700000e+002
-7.1900000e+002
-7.2600000e+002
-7.2800000e+002
-7.3200000e+002
-7.4000000e+002
-7.4100000e+002
-7.3800000e+002
-7.5200000e+002
-7.6000000e+002
-7.7000000e+002
-7.8100000e+002
-7.8800000e+002
-7.9300000e+002
-8.0800000e+002
-8.0700000e+002
-8.1700000e+002
-8.2200000e+002
-8.2500000e+002
-8.3100000e+002
-8.3100000e+002
-8.4000000e+002
-8.4600000e+002
-8.4400000e+002
-8.4900000e+002
-8.5600000e+002
-8.5700000e+002
-8.6000000e+002
-8.6000000e+002
-8.6100000e+002
-8.6500000e+002
-8.6500000e+002
-8.7700000e+002
-8.8000000e+002
-8.7300000e+002
-8.7400000e+002
-8.7200000e+002
-8.7800000e+002
-8.8400000e+002
-8.7100000e+002
-8.7200000e+002
-8.7800000e+002
-8.7400000e+002
-8.7800000e+002
-8.8100000e+002
-8.8900000e+002
-8.8600000e+002
-8.8100000e+002
-8.8800000e+002
-8.9600000e+002
-8.8800000e+002
-8.8900000e+002
-8.8800000e+002
-8.8800000e+002
-8.9600000e+002
-8.9600000e+002
-9.0300000e+002
-8.9600000e+002
-8.9800000e+002
-9.0400000e+002
-8.9600000e+002
-8.9600000e+002
-8.9600000e+002
-8.8700000e+002
-8.9600000e+002
-8.9900000e+002
-9.0000000e+002
-9.0800000e+002
-9.0900000e+002
-9.0800000e+002
-9.0800000e+002
-8.9600000e+002
-8.9700000e+002
-9.0200000e+002
-9.0800000e+002
-9.1300000e+002
-9.1400000e+002
-9.1300000e+002
-9.1100000e+002
-9.0100000e+002
-8.9800000e+002
-9.0000000e+002
-9.0000000e+002
-9.0900000e+002
-9.0900000e+002
-9.1100000e+002
-9.1300000e+002
-9.0800000e+002
-9.0500000e+002
-9.0800000e+002
-9.0800000e+002
-9.1300000e+002
-9.0800000e+002
-9.0800000e+002
-9.1200000e+002
-8.9600000e+002
-8.8800000e+002
-8.8000000e+002
-8.6200000e+002
-8.6000000e+002
-8.6000000e+002
-8.4100000e+002
-8.3800000e+002
-8.4400000e+002
-8.5600000e+002
-8.6000000e+002
-8.4600000e+002
-8.3600000e+002
-8.4400000e+002
-8.6800000e+002
-9.1000000e+002
-9.3600000e+002
-9.4600000e+002
-9.6300000e+002
-9.6800000e+002
-9.6700000e+002
-9.3700000e+002
-9.1800000e+002
-9.1800000e+002
-9.3100000e+002
-9.6100000e+002
-9.9300000e+002
-1.0160000e+003
-1.0440000e+003
-1.0300000e+003
-1.0200000e+003
-9.9200000e+002
-9.8200000e+002
-9.7300000e+002
-9.6000000e+002
-9.5300000e+002
-9.6400000e+002
-9.7200000e+002
-9.8200000e+002
-9.9200000e+002
-9.8400000e+002
-9.8400000e+002
-9.8900000e+002
-9.9200000e+002
-9.9800000e+002
-9.9600000e+002
-9.9200000e+002
-9.8500000e+002
-9.7600000e+002
-9.8000000e+002
-9.8000000e+002
-9.7700000e+002
-9.8400000e+002
-9.8000000e+002
-9.7600000e+002
-9.6800000e+002
-9.6000000e+002
-9.5600000e+002
-9.4000000e+002
-9.0200000e+002
-8.3100000e+002
-6.8900000e+002
-4.7000000e+002
-2.1800000e+002
1.4000000e+002
3.7800000e+002
5.0100000e+002
5.9000000e+002
7.0400000e+002
9.7200000e+002
1.0320000e+003
8.1200000e+002
4.6100000e+002
-1.7200000e+002
-1.0360000e+003
-2.1310000e+003
-3.2920000e+003
-4.4530000e+003
-5.6140000e+003
-6.7750000e+003
-7.7080000e+003
-7.1010000e+003
-6.4940000e+003
-5.8870000e+003
-5.2800000e+003
-4.6730000e+003
-4.0660000e+003
-3.4590000e+003
-2.8520000e+003
-2.3880000e+003
-2.0550000e+003
-1.8550000e+003
-1.7170000e+003
-1.5240000e+003
-1.2560000e+003
-1.0040000e+003
-8.3100000e+002
-7.4800000e+002
-6.9600000e+002
-6.4900000e+002
-5.8200000e+002
-5.0200000e+002
-4.4000000e+002
-4.1200000e+002
-3.9800000e+002
-3.9200000e+002
-3.6100000e+002
-3.1900000e+002
-2.8000000e+002
-2.4600000e+002
-2.3600000e+002
-2.2600000e+002
-2.0600000e+002
-1.8400000e+002
-1.5400000e+002
-1.2700000e+002
-1.1600000e+002
-1.0000000e+002
-8.9000000e+001
-7.1000000e+001
-3.7000000e+001
-8.0000000e+000
3.6000000e+001
6.0000000e+001
7.2000000e+001
8.7000000e+001
1.0600000e+002
1.2700000e+002
1.5800000e+002
1.8000000e+002
2.0600000e+002
2.4000000e+002
2.6100000e+002
2.9500000e+002
3.2800000e+002
3.5900000e+002
3.9600000e+002
4.2200000e+002
4.5700000e+002
4.9800000e+002
5.2700000e+002
5.6400000e+002
6.0000000e+002
6.3900000e+002
6.9000000e+002
7.2800000e+002
7.6800000e+002
8.1300000e+002
8.5400000e+002
8.9600000e+002
9.2400000e+002
9.6000000e+002
9.9600000e+002
1.0200000e+003
1.0400000e+003
1.0600000e+003
1.0630000e+003
1.0720000e+003
1.0760000e+003
1.0700000e+003
1.0700000e+003
1.0480000e+003
1.0230000e+003
9.9800000e+002
9.5400000e+002
9.1100000e+002
8.5400000e+002
7.9000000e+002
7.2100000e+002
6.3800000e+002
5.5400000e+002
4.6300000e+002
3.6800000e+002
2.8400000e+002
1.9600000e+002
1.1200000e+002
4.8000000e+001
-4.4000000e+001
-1.1600000e+002
-1.7700000e+002
-2.3600000e+002
-2.8800000e+002
-3.3200000e+002
-3.8400000e+002
-4.1200000e+002
-4.5400000e+002
-4.8800000e+002
-5.1100000e+002
-5.4800000e+002
-5.6500000e+002
-5.8400000e+002
-6.0000000e+002
-6.1200000e+002
-6.2900000e+002
-6.4400000e+002
-6.5300000e+002
-6.7600000e+002
-6.8800000e+002
-6.9400000e+002
-7.0400000e+002
-7.0400000e+002
-7.1300000e+002
-7.1900000e+002
-7.2800000e+002
-7.3600000e+002
-7.3200000e+002
-7.4200000e+002
-7.5200000e+002
-7.4800000e+002
-7.4900000e+002
-7.5000000e+002
-7.5200000e+002
-7.6800000e+002
-7.7200000e+002
-7.7300000e+002
-7.7700000e+002
-7.7700000e+002
-7.8500000e+002
-7.8800000e+002
-7.8300000e+002
-7.8800000e+002
-7.9000000e+002
-7.8900000e+002
-7.9400000e+002
-7.8900000e+002
-7.8900000e+002
-7.9600000e+002
-7.9300000e+002
-7.9900000e+002
-7.9200000e+002
-7.8400000e+002
-7.8200000e+002
-7.7200000e+002
-7.7000000e+002
-7.5700000e+002
-7.5200000e+002
-7.6000000e+002
-7.4800000e+002
-7.4500000e+002
-7.4400000e+002
-7.3300000e+002
-7.3000000e+002
-7.2800000e+002
-7.2400000e+002
-7.2800000e+002
-7.2500000e+002
-7.2100000e+002
-7.2200000e+002
-7.1600000e+002
-7.1700000e+002
-7.1800000e+002
-7.2100000e+002
-7.2400000e+002
-7.1800000e+002
-7.1800000e+002
-7.2400000e+002
-7.1600000e+002
-7.1300000e+002
-7.1900000e+002
-7.2600000e+002
-7.3600000e+002
-7.4000000e+002
-7.4000000e+002
-7.4500000e+002
-7.4800000e+002
-7.5400000e+002
-7.6800000e+002
-7.6800000e+002
-7.8000000e+002
-7.8300000e+002
-7.8300000e+002
-7.9000000e+002
-7.8300000e+002
-7.9200000e+002
-7.9800000e+002
-8.0100000e+002
-8.1600000e+002
-8.2400000e+002
-8.2800000e+002
-8.4000000e+002
-8.3800000e+002
-8.4400000e+002
-8.4400000e+002
-8.4600000e+002
-8.5200000e+002
-8.5300000e+002
-8.6000000e+002
-8.6500000e+002
-8.6000000e+002
-8.6400000e+002
-8.6800000e+002
-8.7200000e+002
-8.8000000e+002
-8.7600000e+002
-8.7600000e+002
-8.8400000e+002
-8.7800000e+002
-8.8100000e+002
-8.8200000e+002
-8.8100000e+002
-8.9600000e+002
-8.9600000e+002
-8.9700000e+002
-9.0000000e+002
-8.9600000e+002
-8.9700000e+002
-9.0000000e+002
-8.9800000e+002
-9.0800000e+002
-9.0500000e+002
-9.0600000e+002
-9.0800000e+002
-9.0800000e+002
-9.0200000e+002
-9.0400000e+002
-9.0400000e+002
-9.0800000e+002
-9.1000000e+002
-9.0500000e+002
-9.0400000e+002
-8.9600000e+002
-9.0200000e+002
-9.0400000e+002
-9.0900000e+002
-9.1700000e+002
-9.1600000e+002
-9.2000000e+002
-9.2100000e+002
-9.1400000e+002
-9.1700000e+002
-9.1600000e+002
-9.1200000e+002
-9.2200000e+002
-9.2000000e+002
-9.1600000e+002
-9.1900000e+002
-9.0900000e+002
-9.1000000e+002
-9.1000000e+002
-9.1000000e+002
-9.2200000e+002
-9.1600000e+002
-9.1200000e+002
-9.1600000e+002
-9.0900000e+002
-9.0900000e+002
-9.1000000e+002
-9.0400000e+002
-9.1100000e+002
-9.0900000e+002
-9.1000000e+002
-9.1100000e+002
-9.0600000e+002
-9.0500000e+002
-9.0400000e+002
-9.0800000e+002
-9.1600000e+002
-9.1100000e+002
-9.0800000e+002
-9.1300000e+002
-9.0200000e+002
-9.0400000e+002
-8.9800000e+002
-8.9700000e+002
-8.9800000e+002
-8.9600000e+002
-8.9600000e+002
-8.8600000e+002
-8.7600000e+002
-8.7700000e+002
-8.6800000e+002
-8.5600000e+002
-8.5600000e+002
-8.4200000e+002
-8.3700000e+002
-8.3000000e+002
-8.0400000e+002
-8.0300000e+002
-8.1200000e+002
-8.1000000e+002
-8.1500000e+002
-7.9800000e+002
-7.8800000e+002
-7.9600000e+002
-8.1800000e+002
-8.5600000e+002
-8.8600000e+002
-8.9600000e+002
-9.1800000e+002
-9.2200000e+002
-9.1300000e+002
-8.9600000e+002
-8.6700000e+002
-8.6600000e+002
-8.9600000e+002
-9.2000000e+002
-9.6000000e+002
-9.8100000e+002
-9.9900000e+002
-9.8600000e+002
-9.6000000e+002
-9.2700000e+002
-9.2400000e+002
-9.0600000e+002
-9.0400000e+002
-9.0800000e+002
-9.1200000e+002
-9.2400000e+002
-9.2400000e+002
-9.3000000e+002
-9.2700000e+002
-9.1600000e+002
-9.2400000e+002
-9.2600000e+002
-9.3300000e+002
-9.3600000e+002
-9.3000000e+002
-9.2900000e+002
-9.3000000e+002
-9.2500000e+002
-9.2800000e+002
-9.2700000e+002
-9.2400000e+002
-9.2000000e+002
-9.0300000e+002
-9.0400000e+002
-9.0800000e+002
-9.0500000e+002
-9.0000000e+002
-8.6800000e+002
-8.1200000e+002
-6.9400000e+002
-4.8600000e+002
-2.3200000e+002
1.0200000e+002
3.7600000e+002
5.0200000e+002
5.8600000e+002
7.0800000e+002
9.8000000e+002
1.1040000e+003
9.6000000e+002
6.3900000e+002
7.2000000e+001
-7.6800000e+002
-1.8220000e+003
-2.9800000e+003
-3.8970000e+003
-4.8140000e+003
-5.7310000e+003
-6.6480000e+003
-7.2550000e+003
-6.6220000e+003
-5.9890000e+003
-5.3560000e+003
-4.7230000e+003
-4.0900000e+003
-3.4570000e+003
-2.8240000e+003
-2.3420000e+003
-2.0200000e+003
-1.8260000e+003
-1.6810000e+003
-1.4840000e+003
-1.2000000e+003
-9.3300000e+002
-7.6800000e+002
-6.8400000e+002
-6.4400000e+002
-5.9800000e+002
-5.2600000e+002
-4.4400000e+002
-3.8400000e+002
-3.5800000e+002
-3.5600000e+002
-3.4800000e+002
-3.2700000e+002
-2.7600000e+002
-2.2600000e+002
-1.9700000e+002
-1.8400000e+002
-1.8400000e+002
-1.6800000e+002
-1.4200000e+002
-1.2200000e+002
-9.6000000e+001
-7.7000000e+001
-6.9000000e+001
-5.0000000e+001
-3.8000000e+001
-1.2000000e+001
3.4000000e+001
5.0000000e+001
6.8000000e+001
8.6000000e+001
1.0400000e+002
1.2700000e+002
1.5600000e+002
1.8800000e+002
2.2400000e+002
2.4100000e+002
2.6800000e+002
2.9200000e+002
3.1900000e+002
3.6200000e+002
3.9000000e+002
4.1700000e+002
4.5200000e+002
4.7300000e+002
5.0500000e+002
5.4300000e+002
5.8000000e+002
6.2400000e+002
6.5800000e+002
7.0000000e+002
7.4100000e+002
7.8000000e+002
8.1700000e+002
8.4900000e+002
8.8400000e+002
9.2100000e+002
9.5200000e+002
9.8400000e+002
1.0120000e+003
1.0230000e+003
1.0460000e+003
1.0600000e+003
1.0680000e+003
1.0780000e+003
1.0720000e+003
1.0650000e+003
1.0600000e+003
1.0400000e+003
1.0160000e+003
9.8800000e+002
9.4800000e+002
9.0400000e+002
8.4400000e+002
7.7400000e+002
7.0000000e+002
6.0800000e+002
5.2400000e+002
4.3300000e+002
3.4400000e+002
2.6300000e+002
1.7700000e+002
1.0300000e+002
3.7000000e+001
-5.4000000e+001
-1.1200000e+002
-1.5600000e+002
-2.0000000e+002
-2.3800000e+002
-2.8400000e+002
-3.2400000e+002
-3.5700000e+002
-3.9700000e+002
-4.2800000e+002
-4.5400000e+002
-4.8100000e+002
-5.0400000e+002
-5.2100000e+002
-5.4500000e+002
-5.6100000e+002
-5.8200000e+002
-5.9300000e+002
-6.0400000e+002
-6.1500000e+002
-6.1200000e+002
-6.1800000e+002
-6.2800000e+002
-6.3200000e+002
-6.3900000e+002
-6.4600000e+002
-6.5000000e+002
-6.5700000e+002
-6.5500000e+002
-6.6200000e+002
-6.6400000e+002
-6.6800000e+002
-6.8000000e+002
-6.8900000e+002
-6.8900000e+002
-7.0000000e+002
-7.0000000e+002
-7.0800000e+002
-7.0600000e+002
-7.0000000e+002
-7.0900000e+002
-7.0400000e+002
-7.0400000e+002
-7.0000000e+002
-6.9400000e+002
-6.9800000e+002
-7.0400000e+002
-6.9600000e+002
-7.0400000e+002
-7.0400000e+002
-7.0400000e+002
-7.0500000e+002
-6.9500000e+002
-6.9600000e+002
-6.9600000e+002
-6.9200000e+002
-6.9400000e+002
-6.8100000e+002
-6.7000000e+002
-6.6800000e+002
-6.6000000e+002
-6.6400000e+002
-6.6500000e+002
-6.6000000e+002
-6.6800000e+002
-6.6400000e+002
-6.6400000e+002
-6.5600000e+002
-6.4500000e+002
-6.3900000e+002
-6.4400000e+002
-6.4400000e+002
-6.4900000e+002
-6.4800000e+002
-6.5800000e+002
-6.6400000e+002
-6.5600000e+002
-6.5800000e+002
-6.6300000e+002
-6.6400000e+002
-6.7100000e+002
-6.7700000e+002
-6.8000000e+002
-6.8800000e+002
-6.8500000e+002
-6.9000000e+002
-6.9200000e+002
-6.9200000e+002
-6.9600000e+002
-6.9700000e+002
-7.0400000e+002
-7.1200000e+002
-7.1600000e+002
-7.2800000e+002
-7.3600000e+002
-7.4400000e+002
-7.5600000e+002
-7.6000000e+002
-7.6800000e+002
-7.7500000e+002
-7.7600000e+002
-7.7700000e+002
-7.8300000e+002
-7.8100000e+002
-7.9400000e+002
-7.9200000e+002
-7.9600000e+002
-7.9900000e+002
-7.9600000e+002
-8.0400000e+002
-8.0700000e+002
-8.0400000e+002
-8.1300000e+002
-8.1800000e+002
-8.1600000e+002
-8.2400000e+002
-8.2200000e+002
-8.2600000e+002
-8.3000000e+002
-8.3300000e+002
-8.4300000e+002
-8.3900000e+002
-8.4100000e+002
-8.5100000e+002
-8.4400000e+002
-8.4700000e+002
-8.4700000e+002
-8.4700000e+002
-8.5600000e+002
-8.5600000e+002
-8.5300000e+002
-8.6400000e+002
-8.5100000e+002
-8.4700000e+002
-8.5200000e+002
-8.5600000e+002
-8.6600000e+002
-8.6500000e+002
-8.6800000e+002
-8.7300000e+002
-8.6900000e+002
-8.7200000e+002
-8.7600000e+002
-8.7000000e+002
-8.7600000e+002
-8.7400000e+002
-8.7400000e+002
-8.7700000e+002
-8.6500000e+002
-8.6800000e+002
-8.7000000e+002
-8.7600000e+002
-8.8400000e+002
-8.8400000e+002
-8.8000000e+002
-8.7600000e+002
-8.7300000e+002
-8.7400000e+002
-8.8600000e+002
-8.8500000e+002
-8.9600000e+002
-8.9600000e+002
-8.9600000e+002
-8.9700000e+002
-8.8800000e+002
-8.8700000e+002
-8.8800000e+002
-8.8800000e+002
-8.9700000e+002
-9.0000000e+002
-9.0000000e+002
-9.0200000e+002
-8.9600000e+002
-8.9600000e+002
-8.9700000e+002
-9.0100000e+002
-9.0800000e+002
-9.0400000e+002
-9.0000000e+002
-9.0400000e+002
-8.9600000e+002
-8.9700000e+002
-8.9800000e+002
-8.9600000e+002
-9.0900000e+002
-9.1000000e+002
-9.0500000e+002
-9.0600000e+002
-9.0000000e+002
-8.8800000e+002
-8.8200000e+002
-8.6900000e+002
-8.7200000e+002
-8.7600000e+002
-8.6600000e+002
-8.6100000e+002
-8.3400000e+002
-8.2500000e+002
-8.2500000e+002
-8.1600000e+002
-8.1300000e+002
-8.1700000e+002
-8.3700000e+002
-8.4900000e+002
-8.3700000e+002
-8.2400000e+002
-8.1600000e+002
-8.2400000e+002
-8.6100000e+002
-8.8400000e+002
-9.0000000e+002
-9.2000000e+002
-9.2400000e+002
-9.2800000e+002
-9.1200000e+002
-8.8800000e+002
-8.7600000e+002
-8.8800000e+002
-9.2000000e+002
-9.5200000e+002
-9.8000000e+002
-1.0050000e+003
-1.0120000e+003
-9.9000000e+002
-9.7200000e+002
-9.5200000e+002
-9.4000000e+002
-9.3200000e+002
-9.2700000e+002
-9.4000000e+002
-9.5600000e+002
-9.6000000e+002
-9.7200000e+002
-9.6600000e+002
-9.5300000e+002
-9.6000000e+002
-9.4900000e+002
-9.5200000e+002
-9.5600000e+002
-9.5600000e+002
-9.5600000e+002
-9.6000000e+002
-9.5000000e+002
-9.5100000e+002
-9.4400000e+002
-9.4400000e+002
-9.4400000e+002
-9.3600000e+002
-9.4400000e+002
-9.4000000e+002
-9.3400000e+002
-9.2700000e+002
-9.0800000e+002
-8.8400000e+002
-8.1200000e+002
-6.6900000e+002
-4.5400000e+002
-1.9800000e+002
1.5000000e+002
3.7400000e+002
4.9800000e+002
5.8600000e+002
7.2800000e+002
9.8400000e+002
1.0780000e+003
9.2000000e+002
5.6600000e+002
-7.2000000e+001
-8.8900000e+002
-2.0210000e+003
-3.1980000e+003
-4.0090000e+003
-4.8200000e+003
-5.6310000e+003
-6.4420000e+003
-7.2530000e+003
-7.0640000e+003
-6.3040000e+003
-5.5440000e+003
-4.7840000e+003
-4.0240000e+003
-3.2640000e+003
-2.6810000e+003
-2.2720000e+003
-1.9920000e+003
-1.8280000e+003
-1.6810000e+003
-1.4610000e+003
-1.1890000e+003
-9.3400000e+002
-7.8900000e+002
-7.2400000e+002
-6.7600000e+002
-6.1700000e+002
-5.3800000e+002
-4.6200000e+002
-4.2300000e+002
-4.0600000e+002
-4.0400000e+002
-3.9600000e+002
-3.5200000e+002
-3.0200000e+002
-2.6200000e+002
-2.3200000e+002
-2.3200000e+002
-2.2100000e+002
-2.1200000e+002
-1.9200000e+002
-1.5800000e+002
-1.3200000e+002
-1.1600000e+002
-1.0600000e+002
-1.0000000e+002
-8.4000000e+001
-5.8000000e+001
-2.9000000e+001
2.1000000e+001
4.5000000e+001
6.0000000e+001
8.4000000e+001
1.0100000e+002
1.3400000e+002
1.6800000e+002
1.8400000e+002
2.1400000e+002
2.3100000e+002
2.5200000e+002
2.8000000e+002
2.9500000e+002
3.2400000e+002
3.4600000e+002
3.7400000e+002
4.1200000e+002
4.5200000e+002
4.8500000e+002
5.2400000e+002
5.5100000e+002
5.8800000e+002
6.3400000e+002
6.6800000e+002
7.0800000e+002
7.4400000e+002
7.8000000e+002
8.1500000e+002
8.2800000e+002
8.6000000e+002
8.8400000e+002
8.9600000e+002
9.2400000e+002
9.3600000e+002
9.5200000e+002
9.6200000e+002
9.6200000e+002
9.6000000e+002
9.5100000e+002
9.3500000e+002
9.2200000e+002
8.8600000e+002
8.4400000e+002
8.0200000e+002
7.4800000e+002
6.8600000e+002
6.1600000e+002
5.5000000e+002
4.7800000e+002
3.9600000e+002
3.1900000e+002
2.4600000e+002
1.6800000e+002
9.8000000e+001
3.0000000e+001
-5.2000000e+001
-1.0400000e+002
-1.5400000e+002
-2.1600000e+002
-2.6400000e+002
-3.1800000e+002
-3.5700000e+002
-3.9600000e+002
-4.2900000e+002
-4.4800000e+002
-4.7600000e+002
-4.9600000e+002
-5.0900000e+002
-5.4000000e+002
-5.6200000e+002
-5.8200000e+002
-5.9700000e+002
-6.0500000e+002
-6.2000000e+002
-6.3900000e+002
-6.5200000e+002
-6.6800000e+002
-6.7900000e+002
-6.8800000e+002
-7.0800000e+002
-7.1200000e+002
-7.1600000e+002
-7.2400000e+002
-7.2600000e+002
-7.4000000e+002
-7.3600000e+002
-7.3700000e+002
-7.3700000e+002
-7.3200000e+002
-7.2800000e+002
-7.3200000e+002
-7.3300000e+002
-7.4000000e+002
-7.4000000e+002
-7.4600000e+002
-7.5300000e+002
-7.4400000e+002
-7.4400000e+002
-7.5000000e+002
-7.5200000e+002
-7.4800000e+002
-7.4400000e+002
-7.3800000e+002
-7.3700000e+002
-7.2600000e+002
-7.1800000e+002
-7.1700000e+002
-7.0800000e+002
-7.0900000e+002
-7.0700000e+002
-7.0800000e+002
-7.0400000e+002
-6.9400000e+002
-6.9400000e+002
-6.9400000e+002
-6.8600000e+002
-6.8900000e+002
-6.9000000e+002
-6.8000000e+002
-6.8000000e+002
-6.6300000e+002
-6.6400000e+002
-6.7300000e+002
-6.7400000e+002
-6.8800000e+002
-6.8200000e+002
-6.8000000e+002
-6.8600000e+002
-6.8100000e+002
-6.7300000e+002
-6.6800000e+002
-6.6200000e+002
-6.7200000e+002
-6.8800000e+002
-6.8400000e+002
-6.9400000e+002
-6.8800000e+002
-6.9600000e+002
-6.9700000e+002
-6.9700000e+002
-7.1600000e+002
-7.2400000e+002
-7.2800000e+002
-7.4200000e+002
-7.4200000e+002
-7.5300000e+002
-7.5600000e+002
-7.4400000e+002
-7.5700000e+002
-7.6800000e+002
-7.7400000e+002
-7.8300000e+002
-7.8200000e+002
-7.8900000e+002
-8.0600000e+002
-8.0800000e+002
-8.1700000e+002
-8.2500000e+002
-8.3400000e+002
-8.3900000e+002
-8.3400000e+002
-8.3600000e+002
-8.4100000e+002
-8.4000000e+002
-8.4500000e+002
-8.4000000e+002
-8.4100000e+002
-8.5000000e+002
-8.4400000e+002
-8.5100000e+002
-8.6000000e+002
-8.5800000e+002
-8.7000000e+002
-8.7400000e+002
-8.6900000e+002
-8.7900000e+002
-8.7100000e+002
-8.7000000e+002
-8.8000000e+002
-8.7600000e+002
-8.8600000e+002
-8.9600000e+002
-8.9600000e+002
-8.9600000e+002
-8.8400000e+002
-8.8800000e+002
-8.9600000e+002
-8.9600000e+002
-8.9600000e+002
-9.0000000e+002
-9.0100000e+002
-9.0800000e+002
-9.0500000e+002
-8.9600000e+002
-8.8800000e+002
-8.8400000e+002
-8.9600000e+002
-8.9600000e+002
-8.9600000e+002
-8.9800000e+002
-8.9600000e+002
-8.9600000e+002
-9.0400000e+002
-8.9600000e+002
-8.8400000e+002
-8.8000000e+002
-8.8800000e+002
-8.9600000e+002
-8.9600000e+002
-8.9600000e+002
-9.0200000e+002
-9.0900000e+002
-9.2100000e+002
-9.2000000e+002
-9.1400000e+002
-9.1600000e+002
-9.0500000e+002
-9.1600000e+002
-9.1900000e+002
-9.2100000e+002
-9.2400000e+002
-9.2200000e+002
-9.1700000e+002
-9.1600000e+002
-9.1600000e+002
-9.1600000e+002
-9.1500000e+002
-9.0900000e+002
-9.1700000e+002
-9.1700000e+002
-9.2000000e+002
-9.2400000e+002
-9.0400000e+002
-9.0500000e+002
-9.0800000e+002
-9.0200000e+002
-9.0400000e+002
-8.9600000e+002
-8.8800000e+002
-8.9800000e+002
-9.0000000e+002
-8.9700000e+002
-9.0300000e+002
-9.0200000e+002
-8.9900000e+002
-8.8100000e+002
-8.6800000e+002
-8.5400000e+002
-8.3900000e+002
-8.3400000e+002
-8.2500000e+002
-8.2200000e+002
-8.4400000e+002
-8.5200000e+002
-8.4600000e+002
-8.3600000e+002
-8.1600000e+002
-8.2500000e+002
-8.5400000e+002
-8.8000000e+002
-9.2100000e+002
-9.3600000e+002
-9.4400000e+002
-9.4900000e+002
-9.1800000e+002
-8.8800000e+002
-8.7200000e+002
-8.7100000e+002
-9.0100000e+002
-9.2700000e+002
-9.5600000e+002
-9.8800000e+002
-9.9200000e+002
-9.8400000e+002
-9.5200000e+002
-9.3500000e+002
-9.4600000e+002
-9.3800000e+002
-9.2700000e+002
-9.3200000e+002
-9.2200000e+002
-9.3600000e+002
-9.5000000e+002
-9.5200000e+002
-9.5600000e+002
-9.4800000e+002
-9.4400000e+002
-9.5600000e+002
-9.4400000e+002
-9.3600000e+002
-9.2400000e+002
-9.2100000e+002
-9.3200000e+002
-9.3600000e+002
-9.4800000e+002
-9.4800000e+002
-9.3600000e+002
-9.3700000e+002
-9.2400000e+002
-9.2000000e+002
-9.3200000e+002
-9.2900000e+002
-9.0000000e+002
-8.6500000e+002
-7.8300000e+002
-6.3600000e+002
-4.0800000e+002
-1.5400000e+002
1.9200000e+002
4.1400000e+002
5.1100000e+002
5.6400000e+002
6.7600000e+002
8.6200000e+002
9.7400000e+002
7.8300000e+002
3.7800000e+002
-2.7600000e+002
-1.0720000e+003
-2.1650000e+003
-3.4240000e+003
-4.6830000e+003
-5.9420000e+003
-7.2010000e+003
-8.0270000e+003
-7.3460000e+003
-6.6650000e+003
-5.9840000e+003
-5.3030000e+003
-4.6220000e+003
-3.9410000e+003
-3.2600000e+003
-2.7130000e+003
-2.3030000e+003
-2.0170000e+003
-1.8440000e+003
-1.6840000e+003
-1.5130000e+003
-1.2870000e+003
-1.0420000e+003
-8.7400000e+002
-7.6800000e+002
-6.8800000e+002
-6.2400000e+002
-5.5200000e+002
-4.8600000e+002
-4.3600000e+002
-3.9300000e+002
-3.8400000e+002
-3.6000000e+002
-3.3000000e+002
-3.0600000e+002
-2.7600000e+002
-2.5500000e+002
-2.4800000e+002
-2.4000000e+002
-2.3000000e+002
-2.0600000e+002
-1.7700000e+002
-1.5600000e+002
-1.2600000e+002
-1.1200000e+002
-1.0400000e+002
-9.0000000e+001
-7.3000000e+001
-5.3000000e+001
-3.4000000e+001
-1.6000000e+001
2.4000000e+001
3.6000000e+001
5.5000000e+001
8.4000000e+001
1.0200000e+002
1.2600000e+002
1.5200000e+002
1.7600000e+002
2.1200000e+002
2.3400000e+002
2.6400000e+002
3.0400000e+002
3.3000000e+002
3.6400000e+002
3.9300000e+002
4.1200000e+002
4.4800000e+002
4.7600000e+002
5.0800000e+002
5.5200000e+002
5.6800000e+002
5.9800000e+002
6.3600000e+002
6.6500000e+002
7.0400000e+002
7.3200000e+002
7.6800000e+002
8.0700000e+002
8.2600000e+002
8.4900000e+002
8.6600000e+002
8.6600000e+002
8.8000000e+002
8.8700000e+002
8.9600000e+002
8.9600000e+002
8.7100000e+002
8.5400000e+002
8.3600000e+002
8.0000000e+002
7.6800000e+002
7.1900000e+002
6.7600000e+002
6.2200000e+002
5.5200000e+002
4.8200000e+002
4.0400000e+002
3.2400000e+002
2.5200000e+002
1.7600000e+002
1.0200000e+002
4.0000000e+001
-4.8000000e+001
-1.0400000e+002
-1.5800000e+002
-2.1600000e+002
-2.5200000e+002
-2.9400000e+002
-3.4000000e+002
-3.7800000e+002
-4.2400000e+002
-4.6000000e+002
-4.8100000e+002
-5.1000000e+002
-5.3600000e+002
-5.6800000e+002
-5.9200000e+002
-6.0600000e+002
-6.3600000e+002
-6.5200000e+002
-6.6200000e+002
-6.8400000e+002
-6.8600000e+002
-6.9200000e+002
-7.1200000e+002
-7.1800000e+002
-7.3600000e+002
-7.4200000e+002
-7.4400000e+002
-7.5000000e+002
-7.4800000e+002
-7.4800000e+002
-7.6000000e+002
-7.6000000e+002
-7.7300000e+002
-7.7500000e+002
-7.8000000e+002
-7.9000000e+002
-7.8800000e+002
-7.9600000e+002
-7.9200000e+002
-7.8300000e+002
-7.8100000e+002
-7.7600000e+002
-7.7200000e+002
-7.6900000e+002
-7.6100000e+002
-7.6800000e+002
-7.6900000e+002
-7.6800000e+002
-7.7100000e+002
-7.7300000e+002
-7.6800000e+002
-7.6800000e+002
-7.5800000e+002
-7.5400000e+002
-7.4800000e+002
-7.4400000e+002
-7.5200000e+002
-7.4800000e+002
-7.3600000e+002
-7.2900000e+002
-7.1200000e+002
-7.0400000e+002
-7.0400000e+002
-6.9400000e+002
-7.0400000e+002
-6.9600000e+002
-6.9400000e+002
-6.9200000e+002
-6.8100000e+002
-6.7900000e+002
-6.8600000e+002
-6.8200000e+002
-6.9500000e+002
-6.9400000e+002
-6.9600000e+002
-7.0400000e+002
-7.0000000e+002
-7.0000000e+002
-7.0400000e+002
-6.9800000e+002
-7.0000000e+002
-6.9200000e+002
-6.9200000e+002
-7.0400000e+002
-7.0000000e+002
-7.0800000e+002
-7.1800000e+002
-7.2800000e+002
-7.4800000e+002
-7.5000000e+002
-7.4000000e+002
-7.4800000e+002
-7.4800000e+002
-7.6800000e+002
-7.7500000e+002
-7.7600000e+002
-7.9200000e+002
-7.9900000e+002
-7.9700000e+002
-8.0800000e+002
-8.0900000e+002
-8.1700000e+002
-8.2500000e+002
-8.2900000e+002
-8.3600000e+002
-8.2800000e+002
-8.2400000e+002
-8.2900000e+002
-8.2400000e+002
-8.2400000e+002
-8.4200000e+002
-8.4800000e+002
-8.5800000e+002
-8.6000000e+002
-8.5400000e+002
-8.6000000e+002
-8.5000000e+002
-8.4800000e+002
-8.5300000e+002
-8.4700000e+002
-8.5000000e+002
-8.6500000e+002
-8.7100000e+002
-8.7200000e+002
-8.7300000e+002
-8.8100000e+002
-8.8500000e+002
-8.8100000e+002
-8.8900000e+002
-8.9600000e+002
-8.9600000e+002
-8.9600000e+002
-8.8200000e+002
-8.8400000e+002
-8.8500000e+002
-8.8000000e+002
-8.8800000e+002
-8.8900000e+002
-8.9800000e+002
-9.0500000e+002
-8.9700000e+002
-8.9600000e+002
-8.9600000e+002
-8.8600000e+002
-8.9600000e+002
-8.9700000e+002
-8.9700000e+002
-9.0800000e+002
-9.0000000e+002
-9.0100000e+002
-9.0100000e+002
-9.0100000e+002
-9.0800000e+002
-9.1000000e+002
-9.0800000e+002
-9.1300000e+002
-9.1000000e+002
-9.1200000e+002
-9.1200000e+002
-9.0400000e+002
-9.0900000e+002
-9.1100000e+002
-9.1200000e+002
-9.1100000e+002
-9.1300000e+002
-9.1700000e+002
-9.2000000e+002
-9.1800000e+002
-9.2600000e+002
-9.2800000e+002
-9.2200000e+002
-9.2400000e+002
-9.1800000e+002
-9.2600000e+002
-9.3000000e+002
-9.2400000e+002
-9.3200000e+002
-9.2700000e+002
-9.2600000e+002
-9.3300000e+002
-9.2400000e+002
-9.1800000e+002
-9.1600000e+002
-9.1400000e+002
-9.2600000e+002
-9.2400000e+002
-9.1600000e+002
-9.2200000e+002
-9.2000000e+002
-9.2400000e+002
-9.1600000e+002
-9.1000000e+002
-9.1200000e+002
-9.1100000e+002
-9.0000000e+002
-8.9600000e+002
-8.7100000e+002
-8.6000000e+002
-8.5800000e+002
-8.5300000e+002
-8.5200000e+002
-8.5000000e+002
-8.6000000e+002
-8.7100000e+002
-8.6400000e+002
-8.5400000e+002
-8.3600000e+002
-8.3500000e+002
-8.7200000e+002
-9.0800000e+002
-9.2700000e+002
-9.4200000e+002
-9.6000000e+002
-9.6000000e+002
-9.4600000e+002
-9.1200000e+002
-8.9600000e+002
-8.9700000e+002
-9.1400000e+002
-9.4800000e+002
-9.7200000e+002
-9.9800000e+002
-1.0230000e+003
-1.0080000e+003
-9.8400000e+002
-9.5400000e+002
-9.5200000e+002
-9.4800000e+002
-9.2900000e+002
-9.3800000e+002
-9.4400000e+002
-9.4500000e+002
-9.6400000e+002
-9.6700000e+002
-9.6100000e+002
-9.6000000e+002
-9.6000000e+002
-9.6000000e+002
-9.5600000e+002
-9.4800000e+002
-9.6000000e+002
-9.5300000e+002
-9.4400000e+002
-9.4800000e+002
-9.4800000e+002
-9.4400000e+002
-9.3700000e+002
-9.2700000e+002
-9.3300000e+002
-9.3300000e+002
-9.3500000e+002
-9.4200000e+002
-9.2800000e+002
-8.9600000e+002
-8.2500000e+002
-6.9200000e+002
-4.8400000e+002
-2.3200000e+002
9.7000000e+001
3.5800000e+002
4.9200000e+002
5.6600000e+002
6.4800000e+002
8.8800000e+002
9.7600000e+002
7.9000000e+002
4.4000000e+002
-1.7300000e+002
-9.8400000e+002
-2.0400000e+003
-3.2700000e+003
-4.5000000e+003
-5.7300000e+003
-6.9600000e+003
-7.8200000e+003
-7.2030000e+003
-6.5860000e+003
-5.9690000e+003
-5.3520000e+003
-4.7350000e+003
-4.1180000e+003
-3.5010000e+003
-2.8840000e+003
-2.4070000e+003
-2.0490000e+003
-1.8280000e+003
-1.6790000e+003
-1.5090000e+003
-1.2720000e+003
-1.0110000e+003
-8.2400000e+002
-7.1200000e+002
-6.2800000e+002
-5.7500000e+002
-5.1900000e+002
-4.4800000e+002
-3.9400000e+002
-3.6100000e+002
-3.4200000e+002
-3.3300000e+002
-3.0000000e+002
-2.6600000e+002
-2.3200000e+002
-2.0000000e+002
-1.8600000e+002
-1.7400000e+002
-1.5600000e+002
-1.3600000e+002
-9.6000000e+001
-6.3000000e+001
-3.8000000e+001
-2.0000000e+001
9.0000000e+000
2.9000000e+001
5.0000000e+001
6.8000000e+001
1.0000000e+002
1.2600000e+002
1.4800000e+002
1.6800000e+002
1.9200000e+002
2.1700000e+002
2.4600000e+002
2.7000000e+002
3.0100000e+002
3.2400000e+002
3.4800000e+002
3.8400000e+002
4.0400000e+002
4.3200000e+002
4.6000000e+002
4.8600000e+002
5.2400000e+002
5.6600000e+002
6.0200000e+002
6.3800000e+002
6.7900000e+002
7.1800000e+002
7.6000000e+002
7.9800000e+002
8.4800000e+002
8.8800000e+002
9.2700000e+002
9.7400000e+002
1.0080000e+003
1.0320000e+003
1.0600000e+003
1.0780000e+003
1.1030000e+003
1.1220000e+003
1.1360000e+003
1.1510000e+003
1.1510000e+003
1.1570000e+003
1.1590000e+003
1.1480000e+003
1.1330000e+003
1.1080000e+003
1.0720000e+003
1.0310000e+003
9.7200000e+002
9.0800000e+002
8.4200000e+002
7.5700000e+002
6.7800000e+002
5.8800000e+002
4.9200000e+002
4.0400000e+002
3.0400000e+002
2.1700000e+002
1.4800000e+002
7.2000000e+001
1.6000000e+001
-6.6000000e+001
-1.3200000e+002
-1.7800000e+002
-2.3600000e+002
-2.8000000e+002
-3.1900000e+002
-3.5800000e+002
-3.8400000e+002
-4.1400000e+002
-4.4000000e+002
-4.5400000e+002
-4.8800000e+002
-5.0800000e+002
-5.2000000e+002
-5.4300000e+002
-5.5300000e+002
-5.6400000e+002
-5.8000000e+002
-5.8400000e+002
-6.0400000e+002
-6.1200000e+002
-6.2000000e+002
-6.3800000e+002
-6.3600000e+002
-6.3900000e+002
-6.4800000e+002
-6.4500000e+002
-6.5300000e+002
-6.5400000e+002
-6.5700000e+002
-6.6800000e+002
-6.6400000e+002
-6.6800000e+002
-6.7400000e+002
-6.7000000e+002
-6.8000000e+002
-6.8100000e+002
-6.8800000e+002
-6.9600000e+002
-6.9400000e+002
-6.8600000e+002
-6.8400000e+002
-6.7600000e+002
-6.8000000e+002
-6.7800000e+002
-6.7100000e+002
-6.7400000e+002
-6.6500000e+002
-6.7100000e+002
-6.7200000e+002
-6.6200000e+002
-6.6000000e+002
-6.6000000e+002
-6.5800000e+002
-6.6100000e+002
-6.4900000e+002
-6.3900000e+002
-6.3900000e+002
-6.3200000e+002
-6.3600000e+002
-6.2900000e+002
-6.2000000e+002
-6.2400000e+002
-6.1200000e+002
-6.0800000e+002
-6.1000000e+002
-6.0800000e+002
-6.0400000e+002
-5.9900000e+002
-5.9300000e+002
-5.9600000e+002
-5.9200000e+002
-5.9300000e+002
-6.0000000e+002
-5.9800000e+002
-6.0400000e+002
-6.1000000e+002
-6.1000000e+002
-6.1200000e+002
-6.1300000e+002
-6.2000000e+002
-6.2400000e+002
-6.2600000e+002
-6.3800000e+002
-6.3300000e+002
-6.4400000e+002
-6.4900000e+002
-6.4400000e+002
-6.4700000e+002
-6.6000000e+002
-6.5800000e+002
-6.6800000e+002
-6.7400000e+002
-6.7700000e+002
-6.8800000e+002
-6.8800000e+002
-6.9200000e+002
-7.0000000e+002
-7.0000000e+002
-7.1300000e+002
-7.1800000e+002
-7.2400000e+002
-7.3600000e+002
-7.3200000e+002
-7.3200000e+002
-7.3700000e+002
-7.3800000e+002
-7.4800000e+002
-7.4600000e+002
-7.4800000e+002
-7.5600000e+002
-7.5300000e+002
-7.6800000e+002
-7.6800000e+002
-7.6000000e+002
-7.6800000e+002
-7.6800000e+002
-7.6800000e+002
-7.6800000e+002
-7.5700000e+002
-7.6000000e+002
-7.6800000e+002
-7.6100000e+002
-7.6800000e+002
-7.7400000e+002
-7.7600000e+002
-7.8000000e+002
-7.7600000e+002
-7.7400000e+002
-7.8300000e+002
-7.8100000e+002
-7.9000000e+002
-7.8600000e+002
-7.8100000e+002
-7.8900000e+002
-7.8800000e+002
-7.8700000e+002
-7.8500000e+002
-7.8800000e+002
-7.9600000e+002
-7.9100000e+002
-7.9300000e+002
-7.9600000e+002
-7.8500000e+002
-7.8300000e+002
-7.8600000e+002
-7.8800000e+002
-7.9600000e+002
-7.9900000e+002
-7.9600000e+002
-7.9800000e+002
-7.9600000e+002
-7.9400000e+002
-7.9600000e+002
-7.8900000e+002
-7.9900000e+002
-7.9100000e+002
-7.8600000e+002
-7.9300000e+002
-7.9000000e+002
-7.8500000e+002
-7.8600000e+002
-7.8800000e+002
-7.9200000e+002
-7.9900000e+002
-7.9700000e+002
-8.0700000e+002
-7.9600000e+002
-8.0100000e+002
-8.0200000e+002
-7.9700000e+002
-8.0200000e+002
-7.9800000e+002
-7.9300000e+002
-7.9800000e+002
-7.9200000e+002
-7.9100000e+002
-7.9700000e+002
-7.9200000e+002
-7.9900000e+002
-8.0400000e+002
-8.0100000e+002
-8.1200000e+002
-8.0500000e+002
-8.0800000e+002
-8.0700000e+002
-7.9600000e+002
-7.9900000e+002
-8.0400000e+002
-7.9900000e+002
-8.0400000e+002
-7.9300000e+002
-7.8800000e+002
-7.8800000e+002
-7.8200000e+002
-7.8000000e+002
-7.7000000e+002
-7.5300000e+002
-7.4800000e+002
-7.4200000e+002
-7.3200000e+002
-7.1200000e+002
-7.0800000e+002
-7.2200000e+002
-7.2100000e+002
-7.1600000e+002
-7.1200000e+002
-6.9600000e+002
-7.1000000e+002
-7.4600000e+002
-7.7700000e+002
-8.1200000e+002
-8.2200000e+002
-8.3900000e+002
-8.4400000e+002
-8.2000000e+002
-7.9100000e+002
-7.7200000e+002
-7.7700000e+002
-8.0800000e+002
-8.3100000e+002
-8.6400000e+002
-8.8800000e+002
-9.0200000e+002
-8.8500000e+002
-8.6400000e+002
-8.3600000e+002
-8.3800000e+002
-8.2400000e+002
-8.1200000e+002
-8.2400000e+002
-8.2500000e+002
-8.3100000e+002
-8.4500000e+002
-8.4200000e+002
-8.4500000e+002
-8.4000000e+002
-8.3700000e+002
-8.4600000e+002
-8.4000000e+002
-8.4400000e+002
-8.4400000e+002
-8.3900000e+002
-8.4100000e+002
-8.4600000e+002
-8.5000000e+002
-8.5400000e+002
-8.4400000e+002
-8.4000000e+002
-8.4400000e+002
-8.3700000e+002
-8.3900000e+002
-8.3900000e+002
-8.2400000e+002
-7.9900000e+002
-7.2800000e+002
-6.0200000e+002
-4.0100000e+002
-1.4000000e+002
1.9200000e+002
4.5200000e+002
5.8300000e+002
6.6200000e+002
7.8000000e+002
1.0580000e+003
1.1740000e+003
1.0230000e+003
7.0000000e+002
1.2600000e+002
-7.0600000e+002
-1.7640000e+003
-2.9160000e+003
-3.8480000e+003
-4.7800000e+003
-5.7120000e+003
-6.6440000e+003
-7.2400000e+003
-6.6040000e+003
-5.9680000e+003
-5.3320000e+003
-4.6960000e+003
-4.0600000e+003
-3.4240000e+003
-2.7880000e+003
-2.2890000e+003
-1.9480000e+003
-1.7560000e+003
-1.6080000e+003
-1.4090000e+003
-1.1360000e+003
-8.6600000e+002
-7.0400000e+002
-6.2000000e+002
-5.6900000e+002
-5.3300000e+002
-4.5200000e+002
-3.6000000e+002
-2.9700000e+002
-2.6400000e+002
-2.6400000e+002
-2.5500000e+002
-2.3400000e+002
-1.9600000e+002
-1.4500000e+002
-1.1800000e+002
-1.0600000e+002
-9.8000000e+001
-9.6000000e+001
-7.6000000e+001
-4.8000000e+001
-2.1000000e+001
1.7000000e+001
3.2000000e+001
3.8000000e+001
6.0000000e+001
7.9000000e+001
1.0400000e+002
1.3400000e+002
1.5300000e+002
1.7700000e+002
1.9600000e+002
2.1600000e+002
2.4600000e+002
2.6800000e+002
2.9000000e+002
3.1600000e+002
3.3600000e+002
3.7200000e+002
4.0600000e+002
4.4000000e+002
4.7400000e+002
5.0000000e+002
5.3200000e+002
5.6200000e+002
5.8800000e+002
6.3000000e+002
6.7000000e+002
7.0800000e+002
7.5600000e+002
7.8800000e+002
8.2800000e+002
8.7100000e+002
9.1100000e+002
9.5600000e+002
9.9400000e+002
1.0230000e+003
1.0600000e+003
1.0870000e+003
1.1130000e+003
1.1400000e+003
1.1500000e+003
1.1670000e+003
1.1800000e+003
1.1800000e+003
1.1760000e+003
1.1650000e+003
1.1590000e+003
1.1440000e+003
1.1120000e+003
1.0840000e+003
1.0460000e+003
9.8800000e+002
9.3400000e+002
8.6100000e+002
7.8300000e+002
7.0400000e+002
6.1500000e+002
5.2600000e+002
4.4000000e+002
3.4800000e+002
2.6400000e+002
1.8800000e+002
1.1400000e+002
5.2000000e+001
-3.1000000e+001
-7.6000000e+001
-1.2700000e+002
-1.7400000e+002
-2.1200000e+002
-2.4800000e+002
-2.7600000e+002
-3.0400000e+002
-3.3600000e+002
-3.4900000e+002
-3.7600000e+002
-3.9800000e+002
-4.1400000e+002
-4.4000000e+002
-4.6000000e+002
-4.6800000e+002
-4.8600000e+002
-4.9800000e+002
-5.1100000e+002
-5.2400000e+002
-5.3000000e+002
-5.4800000e+002
-5.6000000e+002
-5.6600000e+002
-5.7400000e+002
-5.8000000e+002
-5.8400000e+002
-5.9000000e+002
-5.8800000e+002
-6.0100000e+002
-6.1400000e+002
-6.1200000e+002
-6.2000000e+002
-6.2100000e+002
-6.2400000e+002
-6.3400000e+002
-6.2800000e+002
-6.3000000e+002
-6.3600000e+002
-6.3900000e+002
-6.4800000e+002
-6.3900000e+002
-6.3600000e+002
-6.3900000e+002
-6.3900000e+002
-6.4500000e+002
-6.3900000e+002
-6.3600000e+002
-6.3400000e+002
-6.2800000e+002
-6.1700000e+002
-6.1700000e+002
-6.0800000e+002
-6.1300000e+002
-6.1300000e+002
-6.1200000e+002
-6.1000000e+002
-6.0000000e+002
-5.9700000e+002
-5.9400000e+002
-5.8800000e+002
-5.8600000e+002
-5.8100000e+002
-5.8000000e+002
-5.8400000e+002
-5.8300000e+002
-5.8400000e+002
